patID,t_start,t_end,NNmean,NNmedian,NNmode,NNvariance,NNskew,NNkurt,NNiqr,SDNN,RMSSD,pnn50,btsdet,avgsqi,tdflag,ulf,vlf,lf,hf,lfhf,ttlpwr,fdflag,ac,dc,SD1,SD2,SD1SD2,SampEn,ApEn
2008_v3_09020959_ECG,0,300,,,,,,,,,,,,,2,,,,,,,2,,,,,,,
2008_v3_09020959_ECG,5,305,,,,,,,,,,,,,2,,,,,,,2,,,,,,,
2008_v3_09020959_ECG,10,310,,,,,,,,,,,,,2,,,,,,,2,,,,,,,
2008_v3_09020959_ECG,15,315,,,,,,,,,,,,,2,,,,,,,2,,,,,,,
2008_v3_09020959_ECG,20,320,,,,,,,,,,,,,2,,,,,,,2,,,,,,,
2008_v3_09020959_ECG,25,325,,,,,,,,,,,,,2,,,,,,,2,,,,,,,
2008_v3_09020959_ECG,30,330,,,,,,,,,,,,,2,,,,,,,2,,,,,,,
2008_v3_09020959_ECG,35,335,,,,,,,,,,,,,2,,,,,,,2,,,,,,,
2008_v3_09020959_ECG,40,340,,,,,,,,,,,,,2,,,,,,,2,,,,,,,
2008_v3_09020959_ECG,45,345,,,,,,,,,,,,,2,,,,,,,2,,,,,,,
2008_v3_09020959_ECG,50,350,,,,,,,,,,,,,2,,,,,,,2,,,,,,,
2008_v3_09020959_ECG,55,355,,,,,,,,,,,,,2,,,,,,,2,,,,,,,
2008_v3_09020959_ECG,60,360,,,,,,,,,,,,,2,,,,,,,2,,,,,,,
2008_v3_09020959_ECG,65,365,,,,,,,,,,,,,2,,,,,,,2,,,,,,,
2008_v3_09020959_ECG,70,370,,,,,,,,,,,,,2,,,,,,,2,,,,,,,
2008_v3_09020959_ECG,75,375,,,,,,,,,,,,,2,,,,,,,2,,,,,,,
2008_v3_09020959_ECG,80,380,,,,,,,,,,,,,2,,,,,,,2,,,,,,,
2008_v3_09020959_ECG,85,385,,,,,,,,,,,,,2,,,,,,,2,,,,,,,
2008_v3_09020959_ECG,90,390,,,,,,,,,,,,,2,,,,,,,2,,,,,,,
2008_v3_09020959_ECG,95,395,,,,,,,,,,,,,2,,,,,,,2,,,,,,,
2008_v3_09020959_ECG,100,400,,,,,,,,,,,,,2,,,,,,,2,,,,,,,
2008_v3_09020959_ECG,105,405,,,,,,,,,,,,,2,,,,,,,2,,,,,,,
2008_v3_09020959_ECG,110,410,,,,,,,,,,,,,2,,,,,,,2,,,,,,,
2008_v3_09020959_ECG,115,415,,,,,,,,,,,,,2,,,,,,,2,,,,,,,
2008_v3_09020959_ECG,120,420,,,,,,,,,,,,,2,,,,,,,2,,,,,,,
2008_v3_09020959_ECG,125,425,,,,,,,,,,,,,2,,,,,,,2,,,,,,,
2008_v3_09020959_ECG,130,430,,,,,,,,,,,,,2,,,,,,,2,,,,,,,
2008_v3_09020959_ECG,135,435,,,,,,,,,,,,,2,,,,,,,2,,,,,,,
2008_v3_09020959_ECG,140,440,,,,,,,,,,,,,2,,,,,,,2,,,,,,,
2008_v3_09020959_ECG,145,445,,,,,,,,,,,,,2,,,,,,,2,,,,,,,
2008_v3_09020959_ECG,150,450,,,,,,,,,,,,,2,,,,,,,2,,,,,,,
2008_v3_09020959_ECG,155,455,,,,,,,,,,,,,2,,,,,,,2,,,,,,,
2008_v3_09020959_ECG,160,460,,,,,,,,,,,,,2,,,,,,,2,,,,,,,
2008_v3_09020959_ECG,165,465,,,,,,,,,,,,,2,,,,,,,2,,,,,,,
2008_v3_09020959_ECG,170,470,,,,,,,,,,,,,2,,,,,,,2,,,,,,,
2008_v3_09020959_ECG,175,475,,,,,,,,,,,,,2,,,,,,,2,,,,,,,
2008_v3_09020959_ECG,180,480,,,,,,,,,,,,,2,,,,,,,2,,,,,,,
2008_v3_09020959_ECG,185,485,,,,,,,,,,,,,2,,,,,,,2,,,,,,,
2008_v3_09020959_ECG,190,490,,,,,,,,,,,,,2,,,,,,,2,,,,,,,
2008_v3_09020959_ECG,195,495,,,,,,,,,,,,,2,,,,,,,2,,,,,,,
2008_v3_09020959_ECG,200,500,,,,,,,,,,,,,2,,,,,,,2,,,,,,,
2008_v3_09020959_ECG,205,505,,,,,,,,,,,,,2,,,,,,,2,,,,,,,
2008_v3_09020959_ECG,210,510,,,,,,,,,,,,,2,,,,,,,2,,,,,,,
2008_v3_09020959_ECG,215,515,,,,,,,,,,,,,2,,,,,,,2,,,,,,,
2008_v3_09020959_ECG,220,520,,,,,,,,,,,,,2,,,,,,,2,,,,,,,
2008_v3_09020959_ECG,225,525,,,,,,,,,,,,,2,,,,,,,2,,,,,,,
2008_v3_09020959_ECG,230,530,,,,,,,,,,,,,2,,,,,,,2,,,,,,,
2008_v3_09020959_ECG,235,535,,,,,,,,,,,,,2,,,,,,,2,,,,,,,
2008_v3_09020959_ECG,240,540,,,,,,,,,,,,,2,,,,,,,2,,,,,,,
2008_v3_09020959_ECG,245,545,,,,,,,,,,,,,2,,,,,,,2,,,,,,,
2008_v3_09020959_ECG,250,550,,,,,,,,,,,,,2,,,,,,,2,,,,,,,
2008_v3_09020959_ECG,255,555,,,,,,,,,,,,,2,,,,,,,2,,,,,,,
2008_v3_09020959_ECG,260,560,,,,,,,,,,,,,2,,,,,,,2,,,,,,,
2008_v3_09020959_ECG,265,565,,,,,,,,,,,,,2,,,,,,,2,,,,,,,
2008_v3_09020959_ECG,270,570,,,,,,,,,,,,,2,,,,,,,2,,,,,,,
2008_v3_09020959_ECG,275,575,,,,,,,,,,,,,2,,,,,,,2,,,,,,,
2008_v3_09020959_ECG,280,580,,,,,,,,,,,,,2,,,,,,,2,,,,,,,
2008_v3_09020959_ECG,285,585,,,,,,,,,,,,,2,,,,,,,2,,,,,,,
2008_v3_09020959_ECG,290,590,,,,,,,,,,,,,2,,,,,,,2,,,,,,,
2008_v3_09020959_ECG,295,595,,,,,,,,,,,,,2,,,,,,,2,,,,,,,
2008_v3_09020959_ECG,300,600,,,,,,,,,,,,,2,,,,,,,2,,,,,,,
2008_v3_09020959_ECG,305,605,,,,,,,,,,,,,2,,,,,,,2,,,,,,,
2008_v3_09020959_ECG,310,610,,,,,,,,,,,,,2,,,,,,,2,,,,,,,
2008_v3_09020959_ECG,315,615,,,,,,,,,,,,,2,,,,,,,2,,,,,,,
2008_v3_09020959_ECG,320,620,,,,,,,,,,,,,2,,,,,,,2,,,,,,,
2008_v3_09020959_ECG,325,625,,,,,,,,,,,,,2,,,,,,,2,,,,,,,
2008_v3_09020959_ECG,330,630,,,,,,,,,,,,,2,,,,,,,2,,,,,,,
2008_v3_09020959_ECG,335,635,,,,,,,,,,,,,2,,,,,,,2,,,,,,,
2008_v3_09020959_ECG,340,640,,,,,,,,,,,,,2,,,,,,,2,,,,,,,
2008_v3_09020959_ECG,345,645,,,,,,,,,,,,,2,,,,,,,2,,,,,,,
2008_v3_09020959_ECG,350,650,,,,,,,,,,,,,2,,,,,,,2,,,,,,,
2008_v3_09020959_ECG,355,655,,,,,,,,,,,,,2,,,,,,,2,,,,,,,
2008_v3_09020959_ECG,360,660,,,,,,,,,,,,,2,,,,,,,2,,,,,,,
2008_v3_09020959_ECG,365,665,,,,,,,,,,,,,2,,,,,,,2,,,,,,,
2008_v3_09020959_ECG,370,670,,,,,,,,,,,,,2,,,,,,,2,,,,,,,
2008_v3_09020959_ECG,375,675,,,,,,,,,,,,,2,,,,,,,2,,,,,,,
2008_v3_09020959_ECG,380,680,,,,,,,,,,,,,2,,,,,,,2,,,,,,,
2008_v3_09020959_ECG,385,685,,,,,,,,,,,,,2,,,,,,,2,,,,,,,
2008_v3_09020959_ECG,390,690,,,,,,,,,,,,,2,,,,,,,2,,,,,,,
2008_v3_09020959_ECG,395,695,,,,,,,,,,,,,2,,,,,,,2,,,,,,,
2008_v3_09020959_ECG,400,700,,,,,,,,,,,,,2,,,,,,,2,,,,,,,
2008_v3_09020959_ECG,405,705,,,,,,,,,,,,,2,,,,,,,2,,,,,,,
2008_v3_09020959_ECG,410,710,,,,,,,,,,,,,2,,,,,,,2,,,,,,,
2008_v3_09020959_ECG,415,715,,,,,,,,,,,,,2,,,,,,,2,,,,,,,
2008_v3_09020959_ECG,420,720,,,,,,,,,,,,,2,,,,,,,2,,,,,,,
2008_v3_09020959_ECG,425,725,,,,,,,,,,,,,2,,,,,,,2,,,,,,,
2008_v3_09020959_ECG,430,730,,,,,,,,,,,,,2,,,,,,,2,,,,,,,
2008_v3_09020959_ECG,435,735,,,,,,,,,,,,,2,,,,,,,2,,,,,,,
2008_v3_09020959_ECG,440,740,,,,,,,,,,,,,2,,,,,,,2,,,,,,,
2008_v3_09020959_ECG,445,745,768.98462,782,800,3.6671103,-0.56040995,2.4768382,90,60.55667,23.05381,0.035989717,390,0.87337782,5,3416.5784,1549.8345,150.97934,110.18947,1.37,5227.5817,5,-1.1971831,2.2806748,16.317807,84.071099,0.19409532,0.28310932,0.45173579
2008_v3_09020959_ECG,450,750,772.8067,789.5,800,3.3904457,-0.5594635,2.5115522,88.5,58.227534,23.025376,0.036175711,388,0.87577937,5,3128.3247,1411.9835,135.32035,116.13411,1.17,4791.7626,5,-1.0839286,2.3849693,16.298652,80.71707,0.20192323,0.20503955,0.39812412
2008_v3_09020959_ECG,455,755,776.13953,791,800,3.1728406,-0.56640379,2.5643439,84,56.327973,23.046922,0.03626943,387,0.87590803,5,2902.3906,1303.4136,130.09484,106.38861,1.22,4442.2876,5,-1.1852518,2.3928571,16.313985,77.971373,0.20923044,0.19792769,0.39669927
2008_v3_09020959_ECG,460,760,779.68052,796,840,2.9321086,-0.57166609,2.6322282,82,54.148948,23.102185,0.036458333,385,0.87605618,5,2652.9909,1183.4354,125.34942,103.71666,1.21,4065.4924,5,-1.1600719,2.1383648,16.353693,74.811589,0.2185984,0.18868429,0.3921367
2008_v3_09020959_ECG,465,765,783.12794,800,840,2.696693,-0.57168554,2.6998216,80.75,51.929693,23.159022,0.036649215,383,0.8785747,5,2415.4057,1061.257,114.32918,104.68045,1.09,3695.6724,5,-1.1714286,2.093949,16.393831,71.586509,0.22900727,0.14150537,0.34021308
2008_v3_09020959_ECG,470,770,786.08377,800,841,2.5124287,-0.57585195,2.7578127,80,50.124133,22.910988,0.036745407,382,0.88194289,5,2231.8313,965.97029,107.33,111.23599,0.96,3416.3676,5,-1.2014388,2.0254777,16.218135,69.00601,0.23502496,0.13255378,0.3301411
2008_v3_09020959_ECG,475,775,788.99738,801,841,2.3239868,-0.56958805,2.8014093,74.25,48.207747,22.83286,0.036842105,381,0.88816947,5,2050.7703,887.38289,99.285656,94.971275,1.05,3132.4101,5,-1.0882353,1.9113924,16.163909,66.23218,0.24404917,0.12302612,0.31688412
2008_v3_09020959_ECG,480,780,792.06596,803,841,2.1251306,-0.55882083,2.8533726,69,46.099138,21.808692,0.034391534,379,0.89479256,5,1858.044,826.23895,88.626725,84.276151,1.05,2857.1858,5,-1.0466418,1.8564516,15.441424,63.338958,0.2437903,0.10556036,0.30042592
2008_v3_09020959_ECG,485,785,794.3183,806,841,1.9598186,-0.50688687,2.7437106,65,44.269839,19.858341,0.029255319,377,0.90124953,5,1720.4093,768.18203,72.158533,70.689793,1.02,2631.4396,5,-0.92669173,1.7467105,14.058952,61.008058,0.23044418,0.10035116,0.29659778
2008_v3_09020959_ECG,490,790,797.10638,809.5,841,1.8805753,-0.39984832,3.0599073,62.5,43.365601,21.738139,0.034666667,376,0.91066239,5,1606.1471,714.94592,82.499139,80.429573,1.03,2484.0217,5,-0.92537313,1.7152318,15.389419,59.365954,0.2592297,0.10784037,0.29396122
2008_v3_09020959_ECG,495,795,799.544,810,841,1.7461204,-0.3878647,3.1394617,60.75,41.786605,21.596878,0.034759358,375,0.9162882,5,1475.0196,656.58382,70.196434,84.721317,0.83,2286.5211,5,-0.87781955,1.6639073,15.289084,57.083138,0.26783888,0.099979485,0.27845241
2008_v3_09020959_ECG,500,800,801.91711,811,841,1.6120709,-0.36542715,3.2189331,61,40.150602,21.491067,0.034852547,374,0.92122121,5,1347.5499,595.0641,69.994946,85.114426,0.82,2097.7233,5,-0.88257576,1.6003289,15.21507,54.705058,0.27812913,0.09267906,0.26089616
2008_v3_09020959_ECG,505,805,804.18231,812,841,1.488671,-0.34061149,3.3038711,59,38.583299,21.358688,0.034946237,373,0.9287784,5,1230.319,538.69914,67.526513,83.395557,0.81,1919.9402,5,-0.87593985,1.565,15.121546,52.427863,0.28842575,0.091825764,0.25977369
2008_v3_09020959_ECG,510,810,806.37634,818,841,1.3716262,-0.31563389,3.428242,59,37.035472,21.364504,0.035040431,372,0.9338503,5,1118.9586,489.19867,59.069777,81.633167,0.72,1748.8602,5,-0.71374046,1.4916667,15.125595,50.144479,0.30164029,0.085452043,0.25316034
2008_v3_09020959_ECG,515,815,808.40701,819,841,1.271442,-0.29956414,3.5725708,57,35.657285,21.30531,0.035135135,371,0.93687045,5,1021.2023,448.58056,58.374897,80.9763,0.72,1609.134,5,-0.87790698,1.4586093,15.084241,48.118081,0.31348384,0.078994555,0.23311702
2008_v3_09020959_ECG,520,820,810.44054,820,841,1.1674504,-0.26050246,3.7140304,52,34.167973,21.261757,0.035230352,370,0.93578711,5,924.22021,404.3264,50.539029,80.322794,0.63,1459.4084,5,-0.86614173,1.3033333,15.053239,45.916236,0.32784132,0.074050416,0.22483013
2008_v3_09020959_ECG,525,825,812.68207,821,841,1.162757,0.13712252,5.3346874,49,34.099222,24.009535,0.040871935,368,0.93553875,5,859.91921,368.32516,71.022692,104.98372,0.68,1404.2508,5,-0.7016129,1.2651007,16.999059,45.128105,0.37668453,0.071887891,0.22139136
2008_v3_09020959_ECG,530,830,814.48641,821,841,1.0960434,0.18531942,5.5869943,48,33.106546,24.004938,0.040871935,368,0.93526261,5,797.85671,341.3964,66.572429,106.40104,0.63,1312.2266,5,-0.6875,1.2348993,16.996066,43.625916,0.38958644,0.090763538,0.24211229
2008_v3_09020959_ECG,535,835,816.25753,822,841,1.0180104,0.2769255,5.9739604,41,31.906276,24.097501,0.041208791,365,0.93540313,5,723.45346,319.308,55.173502,104.03905,0.53,1201.974,5,-0.66458333,1.2030201,17.06183,41.772177,0.40844961,0.090063849,0.23334348
2008_v3_09020959_ECG,540,840,817.95317,823,841,0.95709449,0.33277354,6.357516,40,30.936944,24.103712,0.041436464,363,0.93760387,5,662.55436,303.50277,44.782114,102.944,0.44,1113.7832,5,-0.68697479,1.135906,17.066083,40.285702,0.42362629,0.089421151,0.22190999
2008_v3_09020959_ECG,545,845,819.66667,828,841,0.96739963,0.61175938,7.193715,40,31.103049,25.056786,0.041436464,363,0.93952054,5,639.24341,290.65402,64.500243,117.87984,0.55,1112.2775,5,-0.69957983,1.147651,17.74174,40.249595,0.440793,0.0911226,0.23281607
2008_v3_09020959_ECG,550,850,821.56906,829,841,0.95123206,0.76439868,7.623557,40,30.84205,26.047793,0.047091413,362,0.94118721,5,599.74995,278.68236,65.931897,135.23794,0.49,1079.6021,5,-0.39285714,1.1071429,18.443532,39.525944,0.4666184,0.09228181,0.22659822
2008_v3_09020959_ECG,555,855,823.25208,830,841,0.88988906,0.87845973,8.1201314,38,29.831008,25.976164,0.047222222,361,0.94118721,5,546.56566,257.95083,56.209759,133.96619,0.42,994.69244,5,-0.69827586,1.1114865,18.392672,37.96693,0.48443927,0.092393344,0.2168852
2008_v3_09020959_ECG,560,860,824.60833,830,841,0.84350355,0.96630048,8.5900467,32,29.043133,25.999464,0.04735376,360,0.94093324,5,505.11713,239.38399,53.110017,134.90924,0.39,932.52038,5,-0.67982456,1.0889262,18.40938,36.716506,0.50139247,0.092614888,0.21824118
2008_v3_09020959_ECG,565,865,826.10028,831,841,0.79801226,1.0451799,9.1347015,31,28.249111,26.032425,0.047486034,359,0.94093324,5,462.83514,215.2476,57.27971,134.72337,0.43,870.08583,5,-0.69736842,1.0527211,18.432754,35.443732,0.5200568,0.092138459,0.21778862
2008_v3_09020959_ECG,570,870,827.43454,831,841,0.75472685,1.1401814,9.7082888,30,27.472292,26.033444,0.047486034,359,0.94243324,5,426.38389,195.17591,54.788914,135.16856,0.41,811.51728,5,-0.68640351,1.0342466,18.433493,34.200293,0.5389864,0.091148797,0.2107316
2008_v3_09020959_ECG,575,875,828.69638,832,841,0.71599974,1.2321094,10.291341,30,26.758171,26.02942,0.047486034,359,0.94463165,5,393.63915,181.28981,51.132392,133.35949,0.38,759.42085,5,-0.68526786,1.207483,18.430849,33.050012,0.55766543,0.090220648,0.21010554
2008_v3_09020959_ECG,580,880,829.99721,835,841,0.68015405,1.3148351,10.947898,30,26.079763,26.064185,0.047619048,358,0.94629832,5,360.2785,165.49291,50.082751,135.0899,0.37,710.94407,5,-0.82432432,0.96746575,18.455492,31.932788,0.57794802,0.13347502,0.25571491
2008_v3_09020959_ECG,585,885,831.17318,838.5,841,0.64431166,1.4223662,11.680654,24,25.383295,26.061928,0.047619048,358,0.94808403,5,330.64553,148.98385,49.126798,134.29255,0.37,663.04873,5,-0.39772727,0.91609589,18.453923,30.790843,0.59933153,0.13118395,0.25218159
2008_v3_09020959_ECG,590,890,832.40896,839,841,0.60945026,1.5400997,12.523188,23.25,24.687046,26.092209,0.047752809,357,0.95228641,5,300.22656,132.95087,49.978193,133.55927,0.37,616.71489,5,-0.40420561,0.9109589,18.475507,29.623574,0.62367582,0.12788162,0.24783024
2008_v3_09020959_ECG,595,895,833.41457,840,841,0.58420967,1.6113922,13.200355,23.25,24.17043,26.07654,0.047752809,357,0.95676261,5,277.69006,122.23127,50.431287,134.47536,0.38,584.82797,5,-0.41284404,0.92294521,18.464652,28.765882,0.64189419,0.124318,0.22957603
2008_v3_09020959_ECG,600,900,834.37921,840,841,0.55658537,1.7357893,14.057811,27,23.592062,25.996695,0.047887324,356,0.96646499,5,254.44344,118.81494,38.43458,138.59851,0.28,550.29146,5,-0.39090909,0.91840278,18.408306,27.826336,0.66154258,0.12139515,0.22159381
2008_v3_09020959_ECG,605,905,835.03933,840,841,0.50402662,2.1602635,15.507439,28,22.450537,22.829805,0.033802817,356,0.97295064,5,246.61636,118.72534,39.816088,122.50137,0.33,527.65916,5,-0.38073394,0.91666667,16.165452,27.326387,0.59156932,0.11796681,0.21796866
2008_v3_09020959_ECG,610,910,836.25634,840,841,0.52580134,2.4552125,16.352774,27,22.930358,24.925425,0.039548023,355,0.97361731,5,230.38513,115.61722,44.827567,138.94807,0.32,529.77799,5,-0.40366972,0.86013986,17.649601,27.204674,0.64877091,0.1250538,0.23203394
2008_v3_09020959_ECG,615,915,837.09859,840,841,0.50706652,2.5515624,17.089238,27,22.518138,24.925652,0.039548023,355,0.97383953,5,212.65946,109.92147,42.157188,140.63722,0.3,505.37535,5,-0.4,0.86888112,17.649761,26.506961,0.66585383,0.12247351,0.23241342
2008_v3_09020959_ECG,620,920,837.94085,840,851,0.48717446,2.6742635,17.973556,22,22.072029,24.924745,0.039548023,355,0.97450619,5,194.69161,99.755332,44.362121,140.89373,0.31,479.70279,5,-0.39678899,0.8637931,17.649142,25.746004,0.68550994,0.1182116,0.2295363
2008_v3_09020959_ECG,625,925,838.90141,840,851,0.46984618,2.7908524,18.684343,21,21.675936,24.928995,0.039548023,355,0.97495064,5,179.33784,88.44635,47.980543,141.05769,0.34,456.82243,5,-0.39090909,0.86458333,17.651962,25.061935,0.70433356,0.1173692,0.23353314
2008_v3_09020959_ECG,630,930,840.0339,841,851,0.44835012,2.9810015,19.71913,20,21.17428,24.953725,0.039660057,354,0.97491645,5,161.55473,82.56138,44.135419,140.78363,0.31,429.03516,5,-0.41055046,0.83865248,17.669743,24.17603,0.73087858,0.11711154,0.22730802
2008_v3_09020959_ECG,635,935,840.82153,841,851,0.44070954,3.0143024,19.955199,20,20.993083,24.987269,0.039772727,353,0.97466248,5,152.42506,81.904871,42.263805,142.05628,0.3,418.65001,5,-0.43981481,0.9,17.69351,23.840277,0.74216881,0.11777394,0.22848107
2008_v3_09020959_ECG,640,940,841.67705,841,851,0.431117,3.0603203,20.274268,19,20.763357,24.986758,0.039772727,353,0.97488471,5,143.26815,79.130007,41.761024,142.26819,0.29,406.42737,5,-0.65801887,0.71428571,17.693159,23.43472,0.75499766,0.11779012,0.22876082
2008_v3_09020959_ECG,645,945,842.52408,841,851,0.4200399,3.1305252,20.751347,20,20.494875,24.986872,0.039772727,353,0.97485296,5,133.72821,72.622744,44.046217,141.98519,0.31,392.38236,5,-0.47380952,0.90535714,17.693262,22.957096,0.77070995,0.11697322,0.22852236
2008_v3_09020959_ECG,650,950,843.37677,841,851,0.40800821,3.2223368,21.345676,19,20.199213,24.986758,0.039772727,353,0.97459899,5,124.23043,65.155597,45.362614,142.46728,0.32,377.21592,5,-0.46359223,0.93392857,17.693204,22.426925,0.78892689,0.11524464,0.22494943
2008_v3_09020959_ECG,655,955,844.19263,842,851,0.39575824,3.3282102,22.030291,17,19.893673,24.977206,0.039772727,353,0.9745648,5,115.23853,61.753544,41.405968,143.43625,0.29,361.8343,5,-0.45631068,0.93345324,17.6865,21.87931,0.80836646,0.21110746,0.30658586
2008_v3_09020959_ECG,660,960,844.90598,842,851,0.39021114,3.3547423,22.262244,12.75,19.753763,25.045558,0.04,351,0.9745648,5,108.1148,63.352135,37.565406,144.24359,0.26,353.27593,5,-0.41747573,0.92830882,17.735072,21.584474,0.82165876,0.20742776,0.29970113
2008_v3_09020959_ECG,665,965,845.36182,843,851,0.36080871,3.5459164,24.493752,12,18.994965,23.27402,0.034285714,351,0.97478703,5,108.86055,65.206879,36.437074,125.20722,0.29,335.71173,5,-0.40048544,0.8962963,16.480579,21.21339,0.77689512,0.2005906,0.2897183
2008_v3_09020959_ECG,670,970,846.25641,843,851,0.38359121,3.573019,23.30025,11,19.585485,24.395374,0.04,351,0.97500925,5,107.11922,65.123372,42.499164,136.90341,0.31,351.64517,5,-0.39903846,0.87313433,17.274631,21.651086,0.79786443,0.20343813,0.29918409
2008_v3_09020959_ECG,675,975,846.94587,845,851,0.37538849,3.6318405,23.755797,11.75,19.374945,24.395667,0.04,351,0.97523147,5,100.57927,62.908546,40.152794,137.56502,0.29,341.20563,5,-0.41666667,0.86213235,17.274829,21.268692,0.81221867,0.19782917,0.29491779
2008_v3_09020959_ECG,680,980,847.62678,849,851,0.36645745,3.7088065,24.336203,12,19.143078,24.39596,0.04,351,0.97662585,5,93.895449,57.741426,40.703407,137.80101,0.3,330.14129,5,-0.40776699,0.86666667,17.275065,20.844353,0.82876477,0.19550825,0.28791823
2008_v3_09020959_ECG,685,985,848.24857,849,851,0.35810709,3.79963,24.993931,12,18.923718,24.427133,0.040114613,350,0.97774093,5,87.147835,51.869993,42.220115,137.8747,0.31,319.11264,5,-0.40048544,0.86666667,17.297149,20.421136,0.84702189,0.19192018,0.28059275
2008_v3_09020959_ECG,690,990,848.95143,850,851,0.34631569,3.9503123,26.022738,13,18.609559,24.419448,0.040114613,350,0.97776708,5,79.897568,47.805415,39.125339,138.05548,0.28,304.8838,5,-0.39285714,0.87222222,17.291827,19.839962,0.87156553,0.18516291,0.2771413
2008_v3_09020959_ECG,695,995,849.47429,850,851,0.34229017,3.9581149,26.169152,19,18.501086,24.417101,0.040114613,350,0.97687178,5,76.454868,46.578754,38.728365,138.32619,0.28,300.08818,5,-0.36915888,1.0354478,17.29018,19.637465,0.88046905,0.17577195,0.26930844
2008_v3_09020959_ECG,700,1000,850.30086,850,851,0.3694121,3.8165093,23.683102,20,19.220096,25.072195,0.045977011,349,0.97731622,5,79.272983,48.878372,48.660347,149.73603,0.32,326.54773,5,-0.56132075,0.85227273,17.754155,20.58189,0.86261053,0.17967076,0.2777557
2008_v3_09020959_ECG,705,1005,850.80516,850,851,0.36459986,3.8333991,23.885886,19,19.094498,25.070819,0.045977011,349,0.97753844,5,75.559449,48.717389,46.317811,150.32901,0.31,320.92366,5,-0.37971698,0.78571429,17.753167,20.347599,0.87249447,0.17369377,0.27616628
2008_v3_09020959_ECG,710,1010,851.32378,850,851,0.3590644,3.8635184,24.179072,19,18.948995,25.070647,0.045977011,349,0.97750426,5,71.503568,45.861205,46.301531,150.63654,0.31,314.30284,5,-0.37619048,0.77798507,17.753038,20.073825,0.88438744,0.16642252,0.27388679
2008_v3_09020959_ECG,715,1015,851.81322,850,861,0.35354138,3.9130003,24.574753,19,18.802696,25.106402,0.04610951,348,0.97702807,5,66.883379,42.056474,46.869077,151.50337,0.31,307.3123,5,-0.36650485,0.77819549,17.778444,19.773965,0.89908346,0.16165258,0.26611077
2008_v3_09020959_ECG,720,1020,852.33046,851,861,0.34718443,3.9644653,25.010029,19,18.632886,25.102614,0.04610951,348,0.9767741,5,62.612763,39.311897,46.042192,151.86357,0.3,299.83042,5,-0.34558824,0.76908397,17.775733,19.452305,0.91381112,0.15552227,0.25735919
2008_v3_09020959_ECG,725,1025,852.62931,851,861,0.31488525,4.3151757,28.4001,19,17.745006,23.307616,0.040345821,348,0.97699632,5,62.241754,39.495556,43.970692,131.95494,0.33,277.66294,5,-0.62990196,1.1545802,16.504659,18.904146,0.87307086,0.14918729,0.24175111
2008_v3_09020959_ECG,730,1030,853.3046,851,861,0.33571099,4.2514432,26.537444,18.5,18.322418,24.396402,0.04610951,348,0.97670572,5,62.115552,40.286084,46.034525,144.37636,0.32,292.81252,5,-0.62864078,0.98106061,17.275719,19.31247,0.89453701,0.14887806,0.2429657
2008_v3_09020959_ECG,735,1035,853.64655,851,861,0.33383725,4.2377558,26.513,18,18.271214,24.396107,0.04610951,348,0.98070572,5,60.166828,41.458327,45.094196,143.44891,0.31,290.16826,5,-0.63366337,0.95555556,17.275515,19.215387,0.89904593,0.15059867,0.25244806
2008_v3_09020959_ECG,740,1040,853.97118,851,861,0.33260032,4.2277137,26.480047,19,18.237333,24.42542,0.046242775,347,0.98153905,5,58.018173,41.64089,45.255649,143.60529,0.32,288.52,5,-0.63613861,0.98120301,17.296335,19.132105,0.90404763,0.14068945,0.23796731
2008_v3_09020959_ECG,745,1045,854.32565,851,861,0.32994856,4.2294021,26.568041,18,18.164486,24.417314,0.046242775,347,0.98150487,5,55.430507,40.759196,45.487274,144.00686,0.32,285.68384,5,-0.63636364,0.97180451,17.290599,18.998218,0.91011688,0.1353179,0.23209739
2008_v3_09020959_ECG,750,1050,854.67147,851,861,0.32715765,4.2348561,26.690773,16.25,18.0875,24.416426,0.046242775,347,0.98194931,5,52.577018,39.746947,45.778976,144.14525,0.32,282.24819,5,-0.6325,0.97556391,17.289975,18.851314,0.91717613,0.12590908,0.2227755
2008_v3_09020959_ECG,755,1055,855.01153,852,861,0.32439293,4.2409185,26.818839,12,18.010911,24.414769,0.046242775,347,0.98217153,5,49.719359,39.064991,45.832037,144.3221,0.32,278.93849,5,-0.45,1.1314815,17.288802,18.705165,0.92427959,0.12237003,0.22305399
2008_v3_09020959_ECG,760,1060,855.35159,852,861,0.32130956,4.2543876,27.003714,12,17.92511,24.414473,0.046242775,347,0.98213734,5,46.584449,38.591392,45.673521,144.37519,0.32,275.22455,5,-0.8325,0.93470149,17.288597,18.539782,0.93251349,0.11838772,0.22117039
2008_v3_09020959_ECG,765,1065,855.68497,853,861,0.31891206,4.2688303,27.161908,11,17.858109,24.449297,0.046376812,346,0.9821056,5,43.396192,37.819689,45.860835,144.97347,0.32,272.05019,5,-0.6489899,1.1314815,17.313315,18.386769,0.94161814,0.11356368,0.21845769
2008_v3_09020959_ECG,770,1070,856.03468,859,861,0.3151872,4.2971156,27.456629,11,17.753512,24.448348,0.046376812,346,0.98207385,5,39.927666,36.157174,46.246479,145.14719,0.32,267.47851,5,-0.6540404,1.1268382,17.312663,18.183677,0.9520991,0.10779307,0.21397402
2008_v3_09020959_ECG,775,1075,856.39017,859,861,0.3112879,4.3300736,27.786187,11,17.643353,24.447993,0.046376812,346,0.98229607,5,36.438571,34.345087,46.338454,145.60671,0.32,262.72882,5,-0.6525,1.1323529,17.312401,17.96821,0.96350175,0.10556717,0.21466838
2008_v3_09020959_ECG,780,1080,856.73699,860,861,0.30716831,4.3711008,28.176006,11,17.526218,24.446689,0.046376812,346,0.98203966,5,32.885716,33.754928,45.484139,145.91374,0.31,258.03852,5,-0.6575,1.1341912,17.311478,17.738358,0.97593463,0.10089675,0.2109896
2008_v3_09020959_ECG,785,1085,857.12104,860,861,0.29723386,4.5786732,29.427461,11,17.240472,23.193456,0.043352601,347,0.98178325,5,28.628119,35.453768,48.175225,140.64578,0.34,252.90289,5,-0.65346535,1.1492537,16.423014,18.020886,0.91133221,0.099157842,0.19877599
2008_v3_09020959_ECG,790,1090,857.36994,860,861,0.31039608,4.6446563,29.826203,11,17.618061,23.840655,0.043478261,346,0.98152929,5,31.825572,34.067885,46.550727,147.46127,0.32,259.90545,5,-0.6525,1.1529851,16.880265,18.326179,0.92110117,0.097663202,0.19935612
2008_v3_09020959_ECG,795,1095,857.71387,860,861,0.30583384,4.7045079,30.336119,11,17.488106,24.539468,0.046376812,346,0.98171732,5,28.130615,33.265777,46.285012,147.72961,0.31,255.41102,5,-0.66919192,1.1455224,17.377179,17.598333,0.98743321,0.1037742,0.21494659
2008_v3_09020959_ECG,800,1100,858.06647,860,861,0.3007347,4.7807755,30.964711,10,17.341704,24.540118,0.046376812,346,0.98193954,5,24.378811,30.588926,46.182592,148.14422,0.31,249.29455,5,-0.69191919,1.112963,17.377634,17.3057,1.0041567,0.10022522,0.21491498
2008_v3_09020959_ECG,805,1105,858.4104,860,861,0.29544267,4.8680905,31.672484,10,17.188446,24.539646,0.046376812,346,0.98193954,5,20.751441,26.014812,47.549777,148.54248,0.32,242.85851,5,-0.69444444,1.1334586,17.377309,16.997485,1.0223459,0.098371639,0.21328687
2008_v3_09020959_ECG,810,1110,858.76301,860,861,0.28995527,4.9647362,32.447208,10,17.028073,24.539173,0.046376812,346,0.98190535,5,17.364793,21.382335,49.134329,148.26338,0.33,236.14483,5,-0.68,1.1401515,17.376965,16.671881,1.0422918,0.096141148,0.21105731
2008_v3_09020959_ECG,815,1115,859.11014,860,861,0.28474365,5.0781929,33.296434,10,16.874349,24.570852,0.046511628,345,0.98142916,5,14.122238,19.32551,47.726284,148.83676,0.32,230.01079,5,-0.5825,1.1420455,17.399485,16.332337,1.0653396,0.093066112,0.20192116
2008_v3_09020959_ECG,820,1120,859.45507,860,861,0.27906847,5.1936159,34.208827,10,16.705343,24.571088,0.046511628,345,0.98223239,5,11.317071,20.996162,40.135896,151.23713,0.27,223.68626,5,-1.055,1.2086466,17.399643,15.980906,1.088777,0.089781315,0.19363296
2008_v3_09020959_ECG,825,1125,859.29769,860,861,0.22613431,5.2946281,36.133754,10,15.037763,21.726028,0.04057971,346,0.98267683,5,13.305334,20.520138,32.947318,114.21168,0.29,180.98447,5,-1.0318627,1.2102273,15.384924,14.682396,1.0478483,0.087233962,0.19322118
2008_v3_09020959_ECG,830,1130,859.47399,860,861,0.22477758,5.3109685,36.31805,9,14.992584,21.725227,0.04057971,346,0.98330931,5,11.923295,20.077472,32.73617,114.64483,0.29,179.38176,5,-1.0169903,1.2156489,15.384351,14.590301,1.0544231,0.082812636,0.1906081
2008_v3_09020959_ECG,835,1135,859.58908,860,861,0.22266351,5.3347428,36.630551,9,14.921914,21.662462,0.040345821,348,0.98486486,5,11.000741,20.516367,32.795754,113.09724,0.29,177.4101,5,-1.0144231,1.1958955,15.339784,14.491999,1.0585002,0.079594948,0.18419334
2008_v3_09020959_ECG,840,1140,859.74785,860,861,0.22069486,5.3628722,36.946328,9,14.855802,20.701838,0.037356322,349,0.98544342,5,9.7803948,23.098384,31.73964,109.47548,0.29,174.0939,5,-1.002381,1.1962963,14.65793,15.051073,0.97387945,0.078826323,0.17077985
2008_v3_09020959_ECG,845,1145,859.62356,860,861,0.18630457,5.6186264,41.55834,8,13.649343,18.954443,0.031700288,348,0.98518701,5,11.371879,19.702743,30.573614,86.168297,0.35,147.81653,5,-1.0072816,1.1921642,13.421151,13.873783,0.96737506,0.074863895,0.15540353
2008_v3_09020959_ECG,850,1150,859.4454,860,861,0.16938318,5.8061475,46.486663,4.5,13.014729,18.414222,0.028818444,348,0.98518701,5,12.52595,18.088641,26.548793,77.430498,0.34,134.59388,5,-1.0145631,1.2048872,13.039547,12.989864,1.0038247,0.25281051,0.3403744
2008_v3_09020959_ECG,855,1155,859.93678,860,861,0.20507957,5.6977541,42.345491,2,14.320599,20.87523,0.034582133,348,0.98540923,5,11.790452,19.302736,31.277089,96.244882,0.32,158.61516,5,-1.0122549,1.2102273,14.782312,13.843496,1.0678164,0.082942895,0.17057272
2008_v3_09020959_ECG,860,1160,860.08596,860,861,0.20329719,5.7286967,42.723811,2,14.258232,20.845973,0.034482759,349,0.98562901,5,10.450769,19.03067,31.256916,95.988009,0.33,156.72636,5,-1.0048544,1.2083333,14.761542,13.736493,1.0746223,0.081064907,0.17017812
2008_v3_09020959_ECG,865,1165,860.25287,860,861,0.20238544,5.7537559,42.959692,2,14.226224,20.875644,0.034582133,348,0.98537504,5,8.9538974,18.566443,31.362318,96.409968,0.33,155.29263,5,-1.0097087,1.1954887,14.782611,13.647171,1.0831997,0.082027383,0.17127234
2008_v3_09020959_ECG,870,1170,860.42816,860,861,0.2007124,5.7946787,43.386401,1,14.167301,20.875644,0.034582133,348,0.98512108,5,7.433115,18.03423,31.36722,96.332921,0.33,153.16749,5,-0.98543689,1.193609,14.782611,13.524024,1.0930631,0.083899488,0.17204693
2008_v3_09020959_ECG,875,1175,860.60057,860.5,861,0.19899562,5.8394102,43.846703,1,14.106581,20.872054,0.034582133,348,0.98512108,5,6.0280286,17.516476,31.319897,96.216023,0.33,151.08042,5,-0.98798077,1.1353383,14.780069,13.399283,1.1030493,0.081785538,0.16276551
2008_v3_09020959_ECG,880,1180,860.77586,861,861,0.19728679,5.8842779,44.309714,1,14.045882,20.869569,0.034582133,348,0.98534086,5,4.7533631,16.726941,31.26435,96.233794,0.32,148.97845,5,-1.2196262,1.3955224,14.778303,13.273106,1.113402,0.081924546,0.16155262
2008_v3_09020959_ECG,885,1185,860.94253,861,861,0.1954549,5.9382933,44.854624,1,13.980519,20.870605,0.034582133,348,0.98556308,5,3.5561248,15.463381,31.374962,96.316017,0.33,146.71048,5,-1.2172897,1.3333333,14.779045,13.13353,1.1252911,0.081665945,0.16109637
2008_v3_09020959_ECG,890,1190,861.11207,861,861,0.19375397,5.9863978,45.347973,1,13.919554,20.869086,0.034582133,348,0.98552889,5,2.5739971,13.970939,31.748935,96.349912,0.33,144.64378,5,-1.2175926,1.3470149,14.777957,13.004612,1.1363628,0.080568661,0.15824154
2008_v3_09020959_ECG,895,1195,861.29107,861,861,0.19227053,6.0429577,45.863673,1,13.866165,20.899567,0.034682081,347,0.98552889,5,1.6829802,12.480343,32.007516,96.40084,0.33,142.57168,5,-1.2359813,1.3444444,14.799619,12.86516,1.1503642,0.0794581,0.15692713
2008_v3_09020959_ECG,900,1200,861.43678,861,861,0.19005075,6.1065445,46.54089,1,13.785889,20.869362,0.034582133,348,0.98575111,5,1.0894383,11.652728,31.437474,96.286274,0.33,140.46592,5,-1.2384259,1.2937956,14.77816,12.716426,1.1621315,0.079395699,0.15578148
2008_v3_09020959_ECG,905,1205,861.61494,861,861,0.18811643,6.1699622,47.174628,1,13.715554,20.871502,0.034582133,348,0.98553133,5,0.57302269,11.288712,29.287603,97.498724,0.3,138.64806,5,-1.2430556,1.3029197,14.779672,12.561615,1.1765742,0.080120172,0.14686083
2008_v3_09020959_ECG,910,1210,861.56322,861,861,0.15172798,7.0505951,58.945825,1,12.317791,18.299541,0.028818444,348,0.98501851,5,0.67389308,11.478756,26.484956,75.716563,0.35,114.35417,5,-1.2663551,1.2934783,12.958402,11.641983,1.1130751,0.27505079,0.34632022
2008_v3_09020959_ECG,915,1215,861.97695,861,861,0.18903415,6.5025478,49.900322,1,13.748969,20.830655,0.034682081,347,0.98476454,5,0.17349149,10.761001,31.768218,97.158254,0.33,139.86096,5,-1.2546296,1.3029197,14.750818,12.668136,1.1644031,0.088705232,0.16696982
2008_v3_09020959_ECG,920,1220,862.14697,861,860,0.18683094,6.5905253,50.746339,1,13.668611,20.830516,0.034682081,347,0.98428835,5,0.043488309,9.1084867,30.785232,97.230343,0.32,137.16755,5,-1.2385321,1.3106618,14.750719,12.493124,1.180707,0.088690661,0.15915153
2008_v3_09020959_ECG,925,1225,862.19885,861,860,0.18615399,6.618196,51.012636,1,13.643826,20.824619,0.034682081,347,0.98428835,5,0.065691284,8.8319193,30.752494,96.748148,0.32,136.39825,5,-1.225,1.3166667,14.746554,12.443758,1.1850564,0.091071691,0.16202163
2008_v3_09020959_ECG,930,1230,862.20173,861,860,0.18615572,6.617456,51.006092,1,13.643889,20.825521,0.034682081,347,0.98428835,5,0.091162676,8.8064311,30.740648,96.783776,0.32,136.42202,5,-1.222973,1.3240741,14.747193,12.44314,1.1851665,0.09119456,0.1620848
2008_v3_09020959_ECG,935,1235,862.20115,861,860,0.18563089,6.6264791,51.147797,1,13.624643,20.795907,0.034582133,348,0.98476454,5,0.11739793,8.7953326,30.587931,96.543917,0.32,136.04458,5,-1.2386364,1.3061594,14.72616,12.42586,1.185122,0.092851271,0.16353049
2008_v3_09020959_ECG,940,1240,862.1954,861,860,0.18567352,6.625404,51.135521,1,13.626207,20.797985,0.034582133,348,0.98450813,5,0.15814096,8.8016879,30.561947,96.552127,0.32,136.0739,5,-1.5585586,1.5955882,14.727633,12.427545,1.1850799,0.096423,0.16689092
2008_v3_09020959_ECG,945,1245,862.20461,861,861,0.18618634,6.6151419,50.983735,1,13.645011,20.82788,0.034682081,347,0.98450813,5,0.20834941,8.7881184,30.635873,96.832322,0.32,136.46466,5,-1.5986239,1.4148551,14.748864,12.443621,1.185255,0.099986126,0.17055838
2008_v3_09020959_ECG,950,1250,862.19597,861,860,0.18621004,6.6157598,50.987547,1,13.64588,20.827533,0.034682081,347,0.98498432,5,0.26104837,8.7034213,30.70857,96.846612,0.32,136.51965,5,-1.6055046,1.4100719,14.748618,12.445816,1.1850262,0.099940586,0.17053348
2008_v3_09020959_ECG,955,1255,862.19885,861,860,0.18622335,6.6143935,50.974669,1,13.646368,20.828574,0.034682081,347,0.98476454,5,0.33257681,8.5675049,30.774599,96.849299,0.32,136.52398,5,-1.6077982,1.4118705,14.749355,12.446013,1.1850667,0.10159521,0.17209012
2008_v3_09020959_ECG,960,1260,862.19253,861,860,0.18570634,6.6242385,51.123054,1,13.627411,20.799025,0.034582133,348,0.98428835,5,0.38519405,8.5463025,30.629578,96.606856,0.32,136.16793,5,-1.6100917,1.4190647,14.728369,12.429313,1.1849705,0.1037208,0.17418872
2008_v3_09020959_ECG,965,1265,862.18678,861,860,0.18572582,6.6244433,51.123525,1,13.628126,20.798678,0.034582133,348,0.98403194,5,0.46239578,8.6899824,30.370749,96.746849,0.31,136.26998,5,-1.6192661,1.3926056,14.728124,12.431171,1.1847736,0.10400543,0.174637
2008_v3_09020959_ECG,970,1270,861.97695,861,860,0.16325958,7.1758002,60.351967,1,12.777307,19.486397,0.028901734,347,0.98361364,5,0.17447017,7.7249652,26.629194,85.815339,0.31,120.34397,5,-1.6330275,1.3304196,13.798918,11.666577,1.1827735,0.31055021,0.37849221
2008_v3_09020959_ECG,975,1275,862.20749,861,860,0.19904931,6.5139373,49.837149,1,14.108484,21.720838,0.034682081,347,0.98243416,5,0.1467687,8.8126699,31.467805,103.9081,0.3,144.33535,5,-1.3761468,1.1805556,15.381194,12.708953,1.2102644,0.10087889,0.17570021
2008_v3_09020959_ECG,980,1280,862.55491,861,860,0.23970857,6.154206,43.647573,1,15.482525,23.577993,0.04057971,346,0.98269057,5,0.60444149,14.286666,38.382016,130.97887,0.29,184.25199,5,-1.375,1.1989437,16.696374,14.165036,1.1787032,0.10717961,0.19412883
2008_v3_09020959_ECG,985,1285,862.55908,861,860,0.23898711,6.1634246,43.777564,1,15.459208,23.543282,0.040462428,347,0.98269057,5,0.58080328,13.719663,38.927717,130.56131,0.3,183.78949,5,-1.3704545,1.1927083,16.671724,14.14312,1.1787868,0.10646889,0.19336006
2008_v3_09020959_ECG,990,1290,862.55331,861,860,0.23901666,6.1633739,43.775949,1,15.460164,23.543773,0.040462428,347,0.98241045,5,0.54551244,13.829974,38.917802,130.56625,0.3,183.85954,5,-1.3704545,1.1822917,16.672071,14.144799,1.1786715,0.10862515,0.19551982
2008_v3_09020959_ECG,995,1295,862.55331,861,860,0.23902822,6.1629075,43.77172,1,15.460537,23.543773,0.040462428,347,0.98327401,5,0.52751228,14.517648,38.151306,130.76035,0.29,183.95682,5,-1.3704545,1.1870629,16.67207,14.145618,1.1786032,0.10259597,0.17666942
2008_v3_09020959_ECG,1000,1300,862.21037,861,860,0.21663481,6.678409,51.002,1,14.718519,22.876775,0.034682081,347,0.9830176,5,0.30579406,12.017425,31.242445,119.20468,0.26,162.77035,5,-1.1995413,1.3741259,16.19975,13.070491,1.239414,0.10307546,0.17804147
2008_v3_09020959_ECG,1005,1305,862.21902,861,860,0.21662241,6.6772167,50.992124,1,14.718098,22.877343,0.034682081,347,0.9830176,5,0.25449015,12.006382,31.292179,119.19041,0.26,162.74346,5,-1.6386364,1.2377622,16.200152,13.069044,1.2395821,0.10544502,0.18031637
2008_v3_09020959_ECG,1010,1310,862.21614,861,860,0.21666124,6.6759685,50.979093,2,14.719417,22.878733,0.034682081,347,0.98327401,5,0.20239826,11.932868,31.441044,119.19246,0.26,162.76877,5,-1.6283784,1.2465035,16.201136,13.070795,1.2394913,0.10713997,0.18187292
2008_v3_09020959_ECG,1015,1315,862.21264,861,860,0.21605264,6.6855428,51.124912,2,14.698729,22.846121,0.034582133,348,0.98349379,5,0.15352831,11.89532,31.402623,118.90721,0.26,162.35869,5,-1.65,1.2395833,16.177975,13.052908,1.2394154,0.11047676,0.18492457
2008_v3_09020959_ECG,1020,1320,862.2069,861,860,0.21607811,6.6855067,51.123335,2,14.699596,22.847004,0.034582133,348,0.98349379,5,0.11807944,12.012806,31.275961,118.96417,0.26,162.37102,5,-1.6582569,1.2309028,16.1786,13.054084,1.2393516,0.11336862,0.18775169
2008_v3_09020959_ECG,1025,1325,862.21037,861,860,0.21669839,6.675381,50.972097,2,14.720679,22.879554,0.034682081,347,0.9830176,5,0.095147504,12.252051,31.211651,119.32351,0.26,162.88236,5,-1.662844,1.2535211,16.201717,13.072916,1.2393346,0.11274956,0.18743869
2008_v3_09020959_ECG,1030,1330,861.98847,861,860,0.19431779,7.2135905,59.489684,2,13.939791,21.703666,0.028901734,347,0.98327401,5,0.20910348,11.342803,27.056585,108.14997,0.25,146.75846,5,-1.6697248,1.2362069,15.369035,12.346187,1.2448406,0.10545004,0.16844868
2008_v3_09020959_ECG,1035,1335,862.22478,861,860,0.23320944,6.5199957,49.061746,2,15.271196,23.88369,0.034682081,347,0.98349379,5,0.43841481,12.58132,31.518794,129.55339,0.24,174.09192,5,-1.703271,1.2311644,16.912777,13.430445,1.2592864,0.11084435,0.17364672
2008_v3_09020959_ECG,1040,1340,862.21264,861,860,0.23257137,6.5303198,49.209574,2,15.250291,23.849432,0.034582133,348,0.98349379,5,0.36285955,12.302712,31.621533,129.60209,0.24,173.8892,5,-1.7083333,1.2414384,16.888447,13.413541,1.2590596,0.11709475,0.18514806
2008_v3_09020959_ECG,1045,1345,862.21264,861,860,0.23257137,6.5303295,49.209571,2,15.250291,23.849311,0.034582133,348,0.98327401,5,0.29886494,12.286727,31.670602,129.67656,0.24,173.93275,5,-1.712963,1.2431507,16.888362,13.413649,1.2590431,0.11932839,0.18756333
2008_v3_09020959_ECG,1050,1350,862.22478,861,860,0.23322678,6.5192653,49.05445,2,15.271764,23.884718,0.034682081,347,0.9830176,5,0.24386739,12.357208,31.732976,129.96316,0.24,174.29721,5,-1.7172897,1.2363014,16.913505,13.430819,1.2593056,0.12204539,0.19009212
2008_v3_09020959_ECG,1055,1355,862.22478,861,860,0.23323834,6.5187637,49.049591,2,15.272143,23.885384,0.034682081,347,0.9830176,5,0.18821538,12.455351,31.7069,129.89278,0.24,174.24325,5,-1.7196262,1.2363014,16.913977,13.431086,1.2593156,0.12311372,0.19105857
2008_v3_09020959_ECG,1060,1360,862.23055,861,860,0.23321837,6.5184871,49.048132,2,15.271489,23.885021,0.034682081,347,0.98327401,5,0.14127104,12.513551,31.663449,129.89578,0.24,174.21405,5,-1.5350467,1.4863014,16.91372,13.429923,1.2594055,0.12406439,0.1922077
2008_v3_09020959_ECG,1065,1365,862.21839,861,860,0.23257465,6.5290552,49.198327,2,15.250398,23.85064,0.034582133,348,0.98349379,5,0.11096265,12.50378,31.595439,129.53049,0.24,173.74068,5,-1.9268868,1.2179054,16.889303,13.412708,1.2592016,0.12374682,0.19167028
2008_v3_09020959_ECG,1070,1370,862.22126,861,860,0.23255897,6.5291626,49.200029,2,15.249884,23.850096,0.034582133,348,0.98349379,5,0.084065941,12.492014,31.653914,129.4793,0.24,173.7093,5,-1.6809524,1.2314189,16.888918,13.412024,1.259237,0.12235749,0.19044247
2008_v3_09020959_ECG,1075,1375,862.2219,861,860,0.2332194,6.520157,49.062478,2,15.271523,23.883992,0.034682081,347,0.9830176,5,0.069205259,12.5168,31.749705,129.8505,0.24,174.18621,5,-1.6923077,1.2214765,16.912991,13.430917,1.2592581,0.12050046,0.18903254
2008_v3_09020959_ECG,1080,1380,862.2219,861,860,0.23322518,6.5199037,49.06005,2,15.271712,23.884476,0.034682081,347,0.9830176,5,0.058402461,12.551103,31.702839,129.86515,0.24,174.1775,5,-1.7160194,1.2183333,16.913334,13.430916,1.2592838,0.11985769,0.18816553
2008_v3_09020959_ECG,1085,1385,862.2219,861,860,0.23320784,6.520644,49.067344,2,15.271144,23.883206,0.034682081,347,0.98327401,5,0.057263139,12.722074,31.434155,130.00735,0.24,174.22084,5,-1.7087379,1.2181208,16.912434,13.430758,1.2592316,0.11675814,0.1852958
2008_v3_09020959_ECG,1090,1390,862,861,860,0.19501441,7.2287744,59.680327,2,13.964756,21.75936,0.028818444,348,0.98349379,5,0.26522973,11.536435,26.69101,108.83079,0.25,147.32346,5,-1.6995192,1.2346939,15.408409,12.353532,1.2472877,0.10795184,0.1740481
2008_v3_09020959_ECG,1095,1395,862.22989,861,860,0.22942827,6.5920921,49.678089,2,15.14689,23.650554,0.034582133,348,0.98349379,5,0.22622842,12.680048,31.601461,127.32558,0.25,171.83332,5,-1.711165,1.2265101,16.747617,13.355668,1.2539707,0.1115647,0.18044167
2008_v3_09020959_ECG,1100,1400,862.23343,861,860,0.23008697,6.5820966,49.531065,1.75,15.168618,23.684462,0.034682081,347,0.98323738,5,0.18492634,12.530698,31.90234,127.92393,0.25,172.5419,5,-1.7156863,1.215,16.771698,13.374756,1.2539816,0.11731578,0.19495112
2008_v3_09020959_ECG,1105,1405,862.23919,861,860,0.2300669,6.5818368,49.529684,2,15.167956,23.684096,0.034682081,347,0.98323738,5,0.14123542,12.397618,32.027598,127.8221,0.25,172.38855,5,-1.7230392,1.2183333,16.771439,13.37358,1.2540725,0.11946594,0.19716169
2008_v3_09020959_ECG,1110,1410,862.23055,861,860,0.2300912,6.5824893,49.53425,1.75,15.168757,23.684279,0.034682081,347,0.98349379,5,0.11733551,12.405258,32.084022,127.72782,0.25,172.33444,5,-1.7376238,1.2130872,16.771568,13.375235,1.253927,0.11944827,0.19712351
2008_v3_09020959_ECG,1115,1415,862.22701,861,860,0.22943247,6.5924796,49.681281,1.5,15.147028,23.649945,0.034582133,348,0.98371357,5,0.099393538,12.447976,31.951071,127.30631,0.25,171.80475,5,-1.7252475,1.2066667,16.747185,13.356524,1.253858,0.11801826,0.19558965
2008_v3_09020959_ECG,1120,1420,862.22701,861,860,0.22943823,6.5922251,49.678786,2,15.147219,23.650371,0.034582133,348,0.98371357,5,0.089766347,12.50837,31.893104,127.27745,0.25,171.76869,5,-1.5247525,1.3916667,16.747487,13.356577,1.2538757,0.11972905,0.19722577
2008_v3_09020959_ECG,1125,1425,862.23055,861,860,0.23009698,6.5822301,49.531765,1.75,15.168948,23.684706,0.034682081,347,0.98323738,5,0.084027281,12.563407,31.942236,127.66224,0.25,172.25191,5,-1.9331683,1.2128378,16.77187,13.375288,1.2539446,0.12043128,0.19785864
2008_v3_09020959_ECG,1130,1430,862.22767,861,860,0.23010698,6.5823644,49.532472,1.75,15.169277,23.684706,0.034682081,347,0.98323738,5,0.091099204,12.498978,32.015443,127.66795,0.25,172.27347,5,-1.4848485,1.2097315,16.77187,13.376035,1.2538746,0.11938367,0.19689758
2008_v3_09020959_ECG,1135,1435,862.23343,861,860,0.23008697,6.5820966,49.531065,1.75,15.168618,23.684584,0.034682081,347,0.98323738,5,0.10227355,12.396494,32.102249,127.64257,0.25,172.24358,5,-1.465,1.2261905,16.771784,13.374648,1.2539982,0.11697259,0.19438193
2008_v3_09020959_ECG,1140,1440,862.22478,861,860,0.23011118,6.5827535,49.535674,1,15.169416,23.684828,0.034682081,347,0.98349379,5,0.13439989,12.39886,32.071477,127.66304,0.25,172.26778,5,-1.4430693,1.2193878,16.771957,13.37624,1.2538619,0.11875908,0.19615996
2008_v3_09020959_ECG,1145,1445,862.22989,861,860,0.22943403,6.5918326,49.675596,2,15.14708,23.650676,0.034582133,348,0.98349379,5,0.15665966,12.467507,31.863352,127.31418,0.25,171.8017,5,-1.4053398,1.2310345,16.747701,13.355994,1.2539464,0.11723835,0.19422584
2008_v3_09020959_ECG,1150,1450,862.32853,861,860,0.22669522,6.7454142,50.775915,2,15.056401,22.294988,0.031791908,347,0.98323738,5,0.25806674,14.034983,34.988512,124.91122,0.28,174.19279,5,-1.4093137,1.2309028,15.786074,14.289517,1.1047311,0.1127372,0.17969629
2008_v3_09020959_ECG,1155,1455,862.23343,861,860,0.22682686,6.614801,49.774558,2,15.060772,22.751993,0.031791908,347,0.98323738,5,0.073715044,13.035402,31.819522,125.75715,0.25,170.68579,5,-1.4084158,1.2326389,16.109871,13.932902,1.1562467,0.11360088,0.18015409
2008_v3_09020959_ECG,1160,1460,862.23343,861,860,0.2268153,6.6153142,49.779631,2,15.060388,23.467171,0.034682081,347,0.98323738,5,0.062740105,12.781975,31.946079,126.00953,0.25,170.80032,5,-1.42,1.2157534,16.617827,13.322103,1.2473877,0.11720947,0.19210171
2008_v3_09020959_ECG,1165,1465,862.23563,861,860,0.22615181,6.6248396,49.923544,2,15.038345,23.433639,0.034582133,348,0.98323738,5,0.056681841,12.627428,31.846961,125.7475,0.25,170.27857,5,-1.4469697,1.2226027,16.594013,13.301968,1.2474855,0.11642355,0.19118718
2008_v3_09020959_ECG,1170,1470,862.23276,861,860,0.22615604,6.6252261,49.926746,2,15.038485,23.433947,0.034582133,348,0.98323738,5,0.061705241,12.640714,31.843716,125.74715,0.25,170.29328,5,-1.4343434,1.2243151,16.594231,13.302015,1.2474976,0.11518686,0.18978992
2008_v3_09020959_ECG,1175,1475,862.23631,861,860,0.22679949,6.6154502,49.781495,2,15.059863,23.467478,0.034682081,347,0.98279293,5,0.072905272,12.721168,31.936739,126.06363,0.25,170.79444,5,-1.4742268,1.2094595,16.618045,13.320645,1.2475406,0.11522479,0.19006734
2008_v3_09020959_ECG,1180,1480,862.55908,861,860,0.26149578,6.1887079,43.103214,2,16.170831,24.925264,0.040462428,347,0.98257315,5,0.11799837,14.423741,40.761986,144.12103,0.28,199.42475,5,-1.2448454,1.1503378,17.650348,14.541553,1.213787,0.11961174,0.20672401
2008_v3_09020959_ECG,1185,1485,862.57225,861,860,0.26219911,6.1793207,42.976748,2,16.192563,24.960839,0.04057971,346,0.98209696,5,0.099201693,14.032685,41.438774,144.35286,0.29,199.92353,5,-1.8350515,1.3886986,17.675613,14.559221,1.2140494,0.11875056,0.20636288
2008_v3_09020959_ECG,1190,1490,862.56936,861,860,0.26219952,6.1798463,42.981031,2,16.192576,24.960316,0.04057971,346,0.98209696,5,0.085673383,13.874012,41.581423,144.34088,0.29,199.88199,5,-1.3479381,1.1318493,17.675244,14.559698,1.2139842,0.1178935,0.20548369
2008_v3_09020959_ECG,1195,1495,862.56484,861,860,0.2614546,6.1891484,43.107942,1,16.169558,24.924162,0.040462428,347,0.98257315,5,0.079512597,13.905122,41.374876,143.91681,0.29,199.27632,5,-1.3131313,1.140411,17.649568,14.539668,1.2138907,0.1192134,0.20668388
2008_v3_09020959_ECG,1200,1500,862.56772,861,860,0.26146,6.188411,43.101747,1,16.169725,24.924568,0.040462428,347,0.98257315,5,0.087798848,13.996202,41.288667,143.99236,0.29,199.36503,5,-1.3106061,1.1482759,17.649855,14.539691,1.2139086,0.11937046,0.20660652
2008_v3_09020959_ECG,1205,1505,862.5562,861,860,0.26147299,6.190086,43.115138,1,16.170126,24.922887,0.040462428,347,0.98279293,5,0.096548106,14.083715,41.25791,143.93285,0.29,199.37102,5,-1.6045918,1.3321918,17.648664,14.54203,1.2136314,0.11572043,0.20282996
2008_v3_09020959_ECG,1210,1510,862.56358,861,860,0.2621945,6.1811067,42.991514,1,16.192421,24.899043,0.04057971,346,0.98304934,5,0.12675452,14.290091,41.152712,143.95757,0.29,199.52713,5,-1.5918367,1.3362069,17.631724,14.612026,1.2066584,0.10983557,0.18491694
2008_v3_09020959_ECG,1215,1515,862.24784,861,860,0.22484591,6.6854135,50.275027,1,14.994863,22.912437,0.034682081,347,0.98352553,5,0.013355661,13.582671,36.614192,124.06099,0.3,174.27121,5,-1.5681818,1.3327586,16.224922,13.65444,1.1882525,0.10791194,0.18361573
2008_v3_09020959_ECG,1220,1520,862.56484,861,860,0.25702107,6.2415562,43.466596,1,16.031877,24.668203,0.040462428,347,0.98374531,5,0.15250149,14.122782,40.718715,142.29238,0.29,197.28638,5,-1.5782828,1.3479021,17.468315,14.453378,1.2085974,0.11042216,0.19428624
2008_v3_09020959_ECG,1225,1525,862.56772,861,860,0.25701491,6.2412432,43.464186,1,16.031685,24.669374,0.040462428,347,0.98326912,5,0.11911241,14.021845,40.798538,142.33798,0.29,197.27748,5,-1.5833333,1.3472222,17.469144,14.451949,1.2087743,0.11409668,0.19790465
2008_v3_09020959_ECG,1230,1530,862.56196,861,860,0.25705034,6.2410013,43.461198,1,16.03279,24.669726,0.040462428,347,0.98304934,5,0.089858387,14.001151,40.8952,142.36048,0.29,197.34669,5,-1.5909091,1.34375,17.469394,14.454099,1.2086117,0.11501732,0.19878868
2008_v3_09020959_ECG,1235,1535,862.56358,861,860,0.2577945,6.2317231,43.333736,1,16.05598,24.704691,0.04057971,346,0.98257315,5,0.079165088,14.001909,41.132135,142.68921,0.29,197.90242,5,-1.56,1.3626761,17.494227,14.475532,1.2085377,0.11319099,0.19697916
2008_v3_09020959_ECG,1240,1540,862.56936,861,860,0.25777054,6.2315243,43.332802,1,16.055234,24.704339,0.04057971,346,0.98257315,5,0.078130407,14.006247,41.058746,142.76355,0.29,197.90668,5,-1.5575,1.3116197,17.493977,14.474178,1.2086335,0.11303481,0.19683812
2008_v3_09020959_ECG,1245,1545,862.57061,861,860,0.25702607,6.240271,43.455926,1,16.032033,24.669257,0.040462428,347,0.98304934,5,0.082680488,14.038835,40.843299,142.34263,0.29,197.30744,5,-1.7794118,1.5440141,17.469061,14.452821,1.2086956,0.11587384,0.19940555
2008_v3_09020959_ECG,1250,1550,862.57061,861,860,0.25703185,6.2400496,43.453975,1,16.032213,24.669784,0.040462428,347,0.98304934,5,0.10058511,14.107747,40.776872,142.3288,0.29,197.31401,5,-1.7572816,1.1347518,17.469435,14.452769,1.2087258,0.11397646,0.19729763
2008_v3_09020959_ECG,1255,1555,862.56772,861,860,0.25703225,6.2405749,43.458333,1,16.032225,24.668847,0.040462428,347,0.98326912,5,0.12901939,13.955612,40.96187,142.3572,0.29,197.4037,5,-1.4830097,1.3528369,17.46877,14.4536,1.2086103,0.10986127,0.19319118
2008_v3_09020959_ECG,1260,1560,862.56936,861,860,0.25777633,6.2313033,43.330857,1,16.055414,24.704515,0.04057971,346,0.98326912,5,0.16672566,13.7837,41.219261,142.8079,0.29,197.97759,5,-1.4757282,1.3607143,17.494102,14.474428,1.2086213,0.11501234,0.19844731
2008_v3_09020959_ECG,1265,1565,862.57803,861,860,0.25775186,6.2305783,43.325604,1,16.054652,24.704925,0.04057971,346,0.98304934,5,0.22160048,13.778734,41.148449,142.84427,0.29,197.99305,5,-1.4830097,1.3421986,17.494393,14.472386,1.2088119,0.11665491,0.20000615
2008_v3_09020959_ECG,1270,1570,862.57061,861,861,0.25703185,6.240037,43.45398,1,16.032213,24.669492,0.040462428,347,0.98346764,5,0.27016641,14.153122,40.521942,142.47371,0.28,197.41894,5,-1.502451,1.3374126,17.469227,14.453021,1.2086904,0.115584,0.19869852
2008_v3_09020959_ECG,1275,1575,862.33718,861,860,0.22140332,6.8209254,51.34628,1,14.879628,21.822259,0.031791908,347,0.98413431,5,0.063514437,9.8611214,37.43229,117.35552,0.32,164.71245,5,-1.502451,1.3229167,15.451095,14.285318,1.0816066,0.10235251,0.16542262
2008_v3_09020959_ECG,1280,1580,862.23851,861,860,0.21638387,6.6954403,50.277054,1,14.709992,22.819111,0.034582133,348,0.98365812,5,0.26736606,7.8557548,34.651643,114.11436,0.3,156.88912,5,-1.4927184,1.3051724,16.158848,13.101884,1.2333225,0.11028854,0.17988623
2008_v3_09020959_ECG,1285,1585,862.23919,861,860,0.21704378,6.6840218,50.115404,1,14.732406,22.853264,0.034682081,347,0.9838779,5,0.22363575,7.7248643,34.963055,114.45493,0.31,157.36649,5,-1.5049505,1.2928082,16.1831,13.122302,1.2332516,0.11061988,0.18014958
2008_v3_09020959_ECG,1290,1590,862.24207,861,861,0.21704528,6.6833544,50.109478,1,14.732457,22.854402,0.034682081,347,0.98435409,5,0.17071109,7.686882,35.069191,114.4842,0.31,157.41098,5,-1.5024752,1.2840136,16.183907,13.121422,1.2333958,0.1165159,0.18652256
2008_v3_09020959_ECG,1295,1595,862.24496,861,860,0.21704676,6.6826933,50.103558,1.75,14.732507,22.854529,0.034682081,347,0.98483028,5,0.13243879,7.765124,35.00294,114.50439,0.31,157.40489,5,-1.5175,1.2840136,16.183996,13.121424,1.2334024,0.11853032,0.18863982
2008_v3_09020959_ECG,1300,1600,862.24138,861,860,0.21642572,6.6928378,50.2524,1.5,14.711415,22.821447,0.034582133,348,0.98483028,5,0.10920086,7.8437389,34.797292,114.20809,0.3,156.95832,5,-1.515,1.2634228,16.160503,13.103037,1.2333402,0.11811877,0.18817378
2008_v3_09020959_ECG,1305,1605,862.23276,861,860,0.21645575,6.6931852,50.254166,1,14.712435,22.82271,0.034582133,348,0.98435409,5,0.094841675,7.8844617,34.747308,114.21341,0.3,156.94002,5,-1.7401961,1.4442568,16.161396,13.104227,1.2332964,0.11699227,0.18706996
2008_v3_09020959_ECG,1310,1610,862.23631,861,860,0.21707116,6.683316,50.108003,1,14.733335,22.855287,0.034682081,347,0.9838779,5,0.082371075,7.8766917,34.931164,114.48396,0.31,157.37418,5,-1.510101,1.1788079,16.184533,13.122622,1.2333307,0.11752284,0.18779229
2008_v3_09020959_ECG,1315,1615,862.24784,861,860,0.21703088,6.6828758,50.105641,1,14.731968,22.855351,0.034682081,347,0.98365812,5,0.073138818,7.8005522,34.973512,114.48366,0.31,157.33087,5,-1.4925743,1.1833333,16.184577,13.119498,1.2336278,0.11631909,0.1865306
2008_v3_09020959_ECG,1320,1620,862.24496,861,860,0.21702942,6.6835417,50.111552,1,14.731918,22.854845,0.034682081,347,0.98413431,5,0.082878404,7.7675306,35.012361,114.53156,0.31,157.39433,5,-1.515,1.1833333,16.18422,13.119827,1.2335696,0.11815123,0.18836758
2008_v3_09020959_ECG,1325,1625,862.23851,861,860,0.21644151,6.6926824,50.250308,1,14.711951,22.823152,0.034582133,348,0.98435409,5,0.10169454,7.7869014,34.798596,114.24671,0.3,156.93391,5,-1.530303,1.1883333,16.16171,13.102754,1.233459,0.1229383,0.19291127
2008_v3_09020959_ECG,1330,1630,862.23851,861,860,0.21646456,6.6915808,50.239614,1,14.712735,22.824099,0.034582133,348,0.9846105,5,0.13147096,7.9703475,34.521155,114.28671,0.3,156.90968,5,-1.515,1.1912752,16.162378,13.103689,1.2334221,0.11967632,0.18953663
2008_v3_09020959_ECG,1335,1635,862.00862,861,861,0.17774344,7.438993,61.130913,1,13.332046,20.544182,0.028818444,348,0.98096876,5,0.27596792,6.9071735,29.504532,92.701929,0.32,129.3896,5,-1.5328283,1.1870861,14.547908,11.993551,1.2129775,0.34738984,0.40622219
2008_v3_09020959_ECG,1340,1640,862.23919,861,861,0.21651777,6.6751155,50.027719,1,14.714543,22.811365,0.034682081,347,0.96931337,5,0.098596905,8.1999441,34.462362,114.60403,0.3,157.36494,5,-1.515,1.1866667,16.15343,13.118773,1.2313217,0.12303267,0.19750074
2008_v3_09020959_ECG,1345,1645,862.68116,861,861,0.29212479,6.5833674,49.213387,1,17.091658,26.113683,0.040697674,345,0.96264671,5,0.506456,16.584452,41.560168,152.41,0.27,211.06108,5,-1.5328283,1.1804636,18.49206,15.565774,1.1879949,0.12260105,0.1960398
2008_v3_09020959_ECG,1350,1650,862.66474,861,861,0.29247858,6.5532935,48.979341,1,17.102005,26.150069,0.04057971,346,0.96159756,5,0.39228505,15.981807,42.618759,152.91659,0.28,211.90944,5,-1.5074257,1.1788079,18.517747,15.557963,1.1902424,0.12992665,0.21763896
2008_v3_09020959_ECG,1355,1655,863.10145,861,861,0.35710886,6.2100469,43.440807,1,18.897324,28.638231,0.046511628,345,0.9611809,5,1.6090102,18.371902,54.804436,185.96646,0.29,260.7518,5,-1.525,1.1837748,20.279784,17.405404,1.165143,0.13181678,0.21877911
2008_v3_09020959_ECG,1360,1660,863.10145,861,861,0.35713793,6.2092538,43.433747,1,18.898093,28.639905,0.046511628,345,0.96070471,5,1.3988297,17.970928,55.168575,186.47664,0.3,261.01497,5,-1.519802,1.1891447,20.280971,17.405692,1.1651919,0.14060662,0.23925145
2008_v3_09020959_ECG,1365,1665,863.10435,861,861,0.35714606,6.2085683,43.427961,1.25,18.898308,28.640565,0.046511628,345,0.96048492,5,1.1876896,18.01451,55.079525,186.63098,0.3,260.9127,5,-1.4068627,1.205298,20.281438,17.405614,1.165224,0.14817477,0.2465484
2008_v3_09020959_ECG,1370,1670,863.11014,861,861,0.35713318,6.2079864,43.423463,2,18.897968,28.640768,0.046511628,345,0.96070471,5,1.0281313,18.188387,55.048967,186.60387,0.3,260.86936,5,-2.2596154,1.5333333,20.281581,17.404707,1.1652929,0.14853591,0.2467575
2008_v3_09020959_ECG,1375,1675,863.11014,861,861,0.35716225,6.2072012,43.416401,2,18.898737,28.642291,0.046511628,345,0.9611809,5,0.88720392,18.324448,55.109034,186.57741,0.3,260.8981,5,-2.3179612,1.5761589,20.28266,17.40512,1.1653272,0.15422921,0.2515412
2008_v3_09020959_ECG,1380,1680,863.10725,861,861,0.35720067,6.2066297,43.410882,2,18.899753,28.642544,0.046511628,345,0.96143731,5,0.71703678,18.390309,55.183905,186.69738,0.3,260.98863,5,-1.9393204,1.8075658,20.282839,17.407119,1.1652037,0.15882273,0.25574535
2008_v3_09020959_ECG,1385,1685,863.11014,861,861,0.35720295,6.2060996,43.40652,2,18.899813,28.643509,0.046511628,345,0.9611809,5,0.58229049,18.483815,55.069223,186.84464,0.29,260.97996,5,-2.2690476,1.5728477,20.283522,17.406453,1.1652875,0.16412229,0.260189
2008_v3_09020959_ECG,1390,1690,863.10435,861,861,0.35726815,6.2052613,43.398319,2,18.901538,28.645082,0.046511628,345,0.96096112,5,0.46099742,18.840382,54.853147,186.80012,0.29,260.95465,5,-2.2880952,1.5805921,20.284636,17.408901,1.1651877,0.1685608,0.26391029
2008_v3_09020959_ECG,1395,1695,862.86957,861,861,0.3229684,6.6910354,50.053581,2,17.971322,27.090771,0.040697674,345,0.96070471,5,0.57439865,17.960358,49.831006,168.41541,0.3,236.78117,5,-2.2880952,1.5751634,19.183972,16.670694,1.1507603,0.16234848,0.25272307
2008_v3_09020959_ECG,1400,1700,863.10435,861,860,0.35776234,6.1890223,43.285615,2,18.914606,28.676372,0.046511628,345,0.96048492,5,1.0111893,18.433512,54.306605,186.66496,0.29,260.41627,5,-2.3100962,1.5681818,20.306793,17.411457,1.1662892,0.16459268,0.2553919
2008_v3_09020959_ECG,1405,1705,863.10725,861,860,0.357753,6.1888101,43.284074,2,18.91436,28.676321,0.046511628,345,0.96048492,5,0.83965537,18.158309,54.47125,187.07599,0.29,260.5452,5,-2.3142857,1.5633117,20.306757,17.410963,1.1663201,0.17034487,0.26710981
2008_v3_09020959_ECG,1410,1710,863.11304,861,861,0.35772265,6.1886947,43.283816,2,18.913557,28.67622,0.046511628,345,0.96000873,5,0.67059821,18.007025,54.670227,187.12809,0.29,260.47595,5,-2.3071429,1.5649351,20.306686,17.409302,1.1664274,0.17512375,0.27107026
2008_v3_09020959_ECG,1415,1715,863.11014,861,860,0.35774946,6.188437,43.281133,2,18.914266,28.676473,0.046511628,345,0.95978895,5,0.51566212,18.124661,54.740469,187.1151,0.29,260.49589,5,-2.3071429,1.5568182,20.306866,17.410632,1.1663485,0.17703327,0.2723827
2008_v3_09020959_ECG,1420,1720,863.10725,861,861,0.35778207,6.1880209,43.277051,2,18.915128,28.677386,0.046511628,345,0.96000873,5,0.4012735,18.371596,54.613523,187.17777,0.29,260.56416,5,-2.3214286,1.55,20.307512,17.411752,1.1663107,0.17965238,0.27457957
2008_v3_09020959_ECG,1425,1725,863.10145,861,861,0.35781817,6.1879744,43.275925,2,18.916082,28.67769,0.046511628,345,0.96048492,5,0.31043801,18.584332,54.506429,187.20476,0.29,260.60596,5,-2.1061321,1.7402597,20.307727,17.413574,1.166201,0.18436995,0.27830734
2008_v3_09020959_ECG,1430,1730,863.10725,861,861,0.3577937,6.1877007,43.274245,2,18.915435,28.677943,0.046511628,345,0.96074134,5,0.22592765,18.643845,54.511652,187.18731,0.29,260.56873,5,-2.5303738,1.5718954,20.307907,17.411959,1.1663195,0.18368099,0.27755476
2008_v3_09020959_ECG,1435,1735,863.10145,861,861,0.35781817,6.1879744,43.275925,2,18.916082,28.677639,0.046511628,345,0.96048492,5,0.16579033,18.548404,54.696342,187.19174,0.29,260.60227,5,-2.2708333,1.5800654,20.307691,17.413615,1.1661962,0.18314731,0.27711887
2008_v3_09020959_ECG,1440,1740,863.11014,861,861,0.35777272,6.1877989,43.275519,2,18.914881,28.677284,0.046511628,345,0.96000873,5,0.12540012,18.433357,54.836849,187.21248,0.29,260.60808,5,-2.296729,1.5762987,20.30744,17.411298,1.1663369,0.18219294,0.27649349
2008_v3_09020959_ECG,1445,1745,863.11014,861,861,0.35777272,6.1877989,43.275519,2,18.914881,28.677031,0.046511628,345,0.95978895,5,0.11318752,18.536663,54.660466,187.29702,0.29,260.60733,5,-2.2897196,1.5800654,20.30726,17.411508,1.1663126,0.18158664,0.27629546
2008_v3_09020959_ECG,1450,1750,863.11014,861,861,0.35779016,6.1873249,43.271307,2,18.915342,28.67774,0.046511628,345,0.95978895,5,0.11611336,18.859463,54.403653,187.38396,0.29,260.76319,5,-2.2897196,1.5833333,20.307763,17.411924,1.1663136,0.1854645,0.27936258
2008_v3_09020959_ECG,1455,1755,862.87536,861,861,0.3223943,6.6910403,50.091134,2,17.955342,27.05523,0.040697674,345,0.95978895,5,0.30083338,18.518933,48.31614,168.23777,0.29,235.37368,5,-2.0233645,1.4128289,19.158803,16.6652,1.1496294,0.17662186,0.26464314
2008_v3_09020959_ECG,1460,1760,863.10435,861,861,0.36111117,6.1567309,42.949025,2,19.002925,28.218572,0.043604651,345,0.95978895,5,0.19960413,19.598832,53.374596,188.96465,0.28,262.13768,5,-2.0350467,1.4221854,19.981303,17.971363,1.1118412,0.17994238,0.26605659
2008_v3_09020959_ECG,1465,1765,863.10725,861,861,0.36109021,6.1568255,42.950245,2,19.002374,28.845569,0.046511628,345,0.95978895,5,0.15779493,19.156109,53.518322,189.10907,0.28,261.94129,5,-2.0277778,1.4210526,20.426609,17.462361,1.1697507,0.1869346,0.28202723
2008_v3_09020959_ECG,1470,1770,863.10435,861,861,0.36109954,6.1570365,42.951789,2,19.002619,28.845267,0.046511628,345,0.96000873,5,0.12979578,19.141067,53.649391,188.96777,0.28,261.88803,5,-2.0233645,1.4101307,20.426394,17.463147,1.1696857,0.18511874,0.28068165
2008_v3_09020959_ECG,1475,1775,863.10725,861,861,0.36109021,6.1568178,42.950249,2,19.002374,28.846023,0.046511628,345,0.96045318,5,0.12455423,19.65191,52.93748,189.3234,0.28,262.03734,5,-2.0186916,1.4161184,20.42693,17.461986,1.1697942,0.18756948,0.28235448
2008_v3_09020959_ECG,1480,1780,862.78261,861,861,0.32654272,6.5762246,49.146087,2,18.070493,27.588125,0.040697674,345,0.96092937,5,0.58508959,17.420528,45.47861,170.60312,0.27,234.08735,5,-2.0424528,1.4221854,19.536166,16.47494,1.1858111,0.18050216,0.26419303
2008_v3_09020959_ECG,1485,1785,862.77457,861,861,0.32564758,6.5854833,49.284761,2,18.045708,27.549429,0.04057971,346,0.96114915,5,0.5618289,17.477926,45.244278,170.12093,0.27,233.40496,5,-1.8981481,1.4283333,19.508681,16.453162,1.1857101,0.18036942,0.26358352
2008_v3_09020959_ECG,1490,1790,862.77168,861,861,0.32566076,6.585557,49.284999,2,18.046073,27.549849,0.04057971,346,0.96092937,5,0.55115492,17.503967,45.248715,170.12254,0.27,233.42637,5,-2.2708333,1.4933333,19.50898,16.453609,1.1856961,0.18324205,0.26616729
2008_v3_09020959_ECG,1495,1795,862.77457,861,861,0.32564179,6.5856615,49.286515,2,18.045548,27.549481,0.04057971,346,0.96045318,5,0.54778633,17.432745,45.360244,170.08576,0.27,233.42654,5,-1.8773585,1.4673203,19.508719,16.452765,1.185741,0.18088507,0.26418056
2008_v3_09020959_ECG,1500,1800,862.77681,861,861,0.32658086,6.5759955,49.143072,2,18.071548,27.58939,0.040697674,345,0.96019677,5,0.56074813,17.396451,45.537481,170.61725,0.27,234.11193,5,-1.902381,1.4736842,19.537062,16.476193,1.1857752,0.1831322,0.26641443
2008_v3_09020959_ECG,1505,1805,862.77681,861,861,0.32658086,6.5759955,49.143072,2,18.071548,27.589284,0.040697674,345,0.96045318,5,0.59936346,17.379867,45.471037,170.67986,0.27,234.13013,5,-1.9086538,1.4735099,19.536987,16.476281,1.1857644,0.18233499,0.26539977
2008_v3_09020959_ECG,1510,1810,862.77168,861,861,0.32564917,6.5859133,49.288508,2,18.045752,27.549639,0.04057971,346,0.96070959,5,0.64983233,17.461649,45.256307,170.02859,0.27,233.39638,5,-1.90625,1.4621711,19.508831,16.453081,1.1857251,0.1836814,0.26644041
2008_v3_09020959_ECG,1515,1815,862.84971,861,861,0.32340923,6.6521061,49.841344,2,17.983582,26.566078,0.037681159,346,0.96045318,5,0.7026743,18.846926,47.656017,167.94615,0.28,235.15177,5,-1.8904762,1.475,18.81108,17.116125,1.0990268,0.17417394,0.25056309
2008_v3_09020959_ECG,1520,1820,862.44798,861,861,0.29435236,7.0427279,56.762013,2,17.1567,26.00078,0.034782609,346,0.96045318,5,1.2576992,16.505754,40.819674,152.98232,0.27,211.56545,5,-1.8880952,1.5050676,18.411929,15.802076,1.1651589,0.17503831,0.25107718
2008_v3_09020959_ECG,1525,1825,862.77101,861,861,0.32932823,6.5380504,48.742129,2,18.147403,27.753378,0.040697674,345,0.96067296,5,0.46463965,17.775551,45.385967,171.36625,0.26,234.99241,5,-1.865566,1.5205479,19.653188,16.504807,1.1907554,0.18172625,0.26221626
2008_v3_09020959_ECG,1530,1830,862.77971,861,861,0.32927691,6.5381753,48.744762,2,18.145989,27.75254,0.040697674,345,0.96114915,5,0.47515174,17.498683,45.671543,171.2905,0.27,234.93587,5,-1.8402778,1.5399306,19.652595,16.502404,1.1908929,0.18047889,0.26111577
2008_v3_09020959_ECG,1535,1835,862.77746,861,861,0.32833584,6.5476106,48.885338,2,18.12004,27.712708,0.04057971,346,0.96136893,5,0.50874633,17.349726,45.658781,170.72508,0.27,234.24233,5,-1.8142202,1.5437063,19.624305,16.479027,1.1908656,0.17943695,0.25981015
2008_v3_09020959_ECG,1540,1840,862.76879,861,861,0.32836957,6.5480212,48.887846,2,18.120971,27.712656,0.04057971,346,0.96114915,5,0.5806827,17.38249,45.557203,170.76807,0.27,234.28845,5,-1.8119266,1.5344828,19.624268,16.481118,1.1907121,0.17792733,0.25827896
2008_v3_09020959_ECG,1545,1845,862.76012,861,861,0.32840896,6.548255,48.888676,2,18.122057,27.712761,0.04057971,346,0.96067296,5,0.65640223,17.409662,45.464624,170.79672,0.27,234.32741,5,-1.8545455,1.5381944,19.624343,16.483419,1.1905505,0.18229935,0.26239715
2008_v3_09020959_ECG,1550,1850,862.77101,861,861,0.32933404,6.537875,48.740408,2,18.147563,27.753431,0.040697674,345,0.96041655,5,0.73648651,17.394171,45.557427,171.31888,0.27,235.00697,5,-2.2977273,1.8339161,19.653225,16.505115,1.1907355,0.18637327,0.26585487
2008_v3_09020959_ECG,1555,1855,862.77681,861,861,0.32931923,6.5373643,48.736425,2,18.147155,27.75364,0.040697674,345,0.96067296,5,0.8475398,17.209501,45.666327,171.26275,0.27,234.98612,5,-1.8853211,1.6214789,19.653374,16.504041,1.1908219,0.18516639,0.26466924
2008_v3_09020959_ECG,1560,1860,862.77457,861,861,0.328407,6.5458989,48.868353,2,18.122003,27.715114,0.04057971,346,0.96114915,5,0.96535034,16.974218,45.565248,170.83295,0.27,234.33776,5,-1.8830275,1.6338028,19.626007,16.481318,1.1908033,0.18274934,0.26189295
2008_v3_09020959_ECG,1565,1865,862.76879,861,861,0.32843914,6.5458789,48.867157,2,18.12289,27.716055,0.04057971,346,0.96136893,5,1.1074754,16.853707,45.584882,170.77652,0.27,234.32259,5,-1.8954545,1.643617,19.626676,16.482472,1.1907604,0.19187564,0.27120775
2008_v3_09020959_ECG,1570,1870,862.76879,861,861,0.32846233,6.5451591,48.860266,2,18.12353,27.71663,0.04057971,346,0.96089274,5,1.2783851,16.86231,45.452183,170.67979,0.27,234.27267,5,-1.8954545,1.6111111,19.627083,16.483394,1.1907185,0.19328553,0.27206379
2008_v3_09020959_ECG,1575,1875,862.77681,861,861,0.32941225,6.5345064,48.708929,2,18.149718,27.721937,0.040697674,345,0.96089274,5,1.4538898,17.130063,45.213207,171.20332,0.26,235.00048,5,-1.9105505,1.6068966,19.630851,16.53645,1.1871261,0.19125773,0.25845568
2008_v3_09020959_ECG,1580,1880,862.53043,861,861,0.29373817,7.1030609,57.180132,2,17.138791,26.108116,0.034883721,345,0.96136893,5,1.0505775,16.406247,40.380381,152.34705,0.27,210.18425,5,-1.9243119,1.6189655,18.488117,15.673732,1.1795607,0.19226593,0.26078692
2008_v3_09020959_ECG,1585,1885,862.77168,861,861,0.33085496,6.5214259,48.569715,2,18.189419,27.84892,0.04057971,346,0.96114915,5,0.68943564,17.702346,45.703828,172.1712,0.27,236.26681,5,-1.8954545,1.6130137,19.720761,16.516704,1.1939889,0.19564335,0.27043172
2008_v3_09020959_ECG,1590,1890,862.77168,861,861,0.33088395,6.5205405,48.561213,2,18.190216,27.849336,0.04057971,346,0.96067296,5,0.82020798,17.309526,45.963731,172.26949,0.27,236.36296,5,-1.9113636,1.6164384,19.721055,16.518108,1.1939052,0.19840676,0.27301659
2008_v3_09020959_ECG,1595,1895,862.77457,861,861,0.33088816,6.5199308,48.555829,2,18.190332,27.850325,0.04057971,346,0.9587682,5,0.95322856,17.119074,46.186294,172.22802,0.27,236.48662,5,-1.9121622,1.619863,19.721756,16.517526,1.1939898,0.20136463,0.27589923
2008_v3_09020959_ECG,1600,1900,862.78261,861,861,0.33186249,6.5087979,48.400357,2,18.217093,27.890984,0.040697674,345,0.95733963,5,1.0982727,17.036014,46.213396,172.88187,0.27,237.22955,5,-1.9211712,1.6431034,19.75063,16.541994,1.1939691,0.20548483,0.27887096
2008_v3_09020959_ECG,1605,1905,862.77681,861,861,0.33192388,6.5078731,48.390775,2,18.218778,27.89385,0.040697674,345,0.95781582,5,1.2986797,16.963464,46.124107,172.84407,0.27,237.23032,5,-1.9211712,1.635274,19.752661,16.54328,1.1939991,0.20911323,0.28324406
2008_v3_09020959_ECG,1610,1910,862.76879,861,861,0.33097827,6.5181253,48.537723,2,18.192808,27.853134,0.04057971,346,0.95829201,5,1.4708361,16.817601,45.925783,172.42894,0.27,236.64316,5,-2.1531532,1.8061224,19.723746,16.520605,1.1938877,0.21028668,0.28405405
2008_v3_09020959_ECG,1615,1915,862.7659,861,861,0.3310146,6.5174899,48.531228,2,18.193807,27.853239,0.04057971,346,0.95851179,5,1.6358532,16.687266,46.027283,172.34398,0.27,236.69438,5,-2.2295455,1.2959184,19.723819,16.522716,1.1937395,0.21326884,0.28682725
2008_v3_09020959_ECG,1620,1920,862.76879,861,861,0.33102465,6.5167031,48.524139,2,18.194083,27.854279,0.04057971,346,0.9580356,5,1.8672237,16.398485,46.119667,172.29408,0.27,236.67945,5,-1.4652778,1.2399329,19.724556,16.522444,1.1938038,0.21777781,0.29005933
2008_v3_09020959_ECG,1625,1925,862.77101,861,861,0.33197358,6.5073233,48.384593,2,18.220142,27.89411,0.040697674,345,0.95781582,5,2.1063362,16.125493,46.29025,172.84303,0.27,237.36511,5,-1.8679245,1.25,19.752846,16.546064,1.1938093,0.21626276,0.28892999
2008_v3_09020959_ECG,1630,1930,862.77681,861,861,0.33192969,6.5076912,48.389083,2,18.218938,27.893068,0.040697674,345,0.95755941,5,2.3643083,15.957438,46.228573,172.81074,0.27,237.36106,5,-1.5259434,1.245,19.752108,16.544292,1.1938926,0.21186608,0.28558013
2008_v3_09020959_ECG,1635,1935,862.77391,861,861,0.33191385,6.5086416,48.397849,2,18.218503,27.891661,0.040697674,345,0.96145755,5,2.5874486,16.215789,45.807756,172.67287,0.27,237.28387,5,-1.5309524,1.225,19.751111,16.544526,1.1938155,0.20404138,0.2697115
2008_v3_09020959_ECG,1640,1940,862.54335,861,861,0.29281696,7.141933,57.513252,2,17.111895,24.522158,0.031884058,346,0.97333272,5,1.6631456,12.699414,45.843039,153.59754,0.3,213.80314,5,-1.552381,1.2335526,17.361824,16.858261,1.0298704,0.19708039,0.25241583
2008_v3_09020959_ECG,1645,1945,862.33621,861,861,0.25647165,6.7996598,53.316501,2,16.014732,24.829273,0.034582133,348,0.97999939,5,0.32115695,9.6059731,40.601257,133.30241,0.3,183.83079,5,-1.5448113,1.2433775,17.582286,14.276082,1.2315904,0.20300359,0.26436033
2008_v3_09020959_ECG,1650,1950,862.35159,861,861,0.25601476,6.8367859,53.632727,2,16.000461,24.790626,0.034682081,347,0.98104853,5,0.38403823,9.9897813,39.9773,133.87697,0.3,184.22809,5,-1.5233645,1.2483333,17.555007,14.277649,1.2295446,0.19813494,0.26268068
2008_v3_09020959_ECG,1655,1955,861.91954,861,861,0.19140561,7.0595738,58.034186,2,13.834942,21.901074,0.028818444,348,0.98003663,5,0.025726503,6.4785279,26.458454,100.158,0.26,133.12071,5,-1.5046296,1.25,15.508761,11.928518,1.3001414,0.19279518,0.24662278
2008_v3_09020959_ECG,1660,1960,861.91092,861,861,0.19140703,7.0613774,58.050943,2,13.834993,21.899956,0.028818444,348,0.97908425,5,0.010515264,6.5347426,26.421047,100.10368,0.26,133.06999,5,-1.5115741,1.2652027,15.507969,11.929667,1.2999498,0.18789483,0.24221041
2008_v3_09020959_ECG,1665,1965,861.91379,861,861,0.19139312,7.0615291,58.053501,2,13.83449,21.900219,0.028818444,348,0.97930403,5,0.0028453837,6.5877229,26.345094,100.13192,0.26,133.06758,5,-1.5,1.2719595,15.508156,11.928259,1.300119,0.19116889,0.24474917
2008_v3_09020959_ECG,1670,1970,861.90805,861,861,0.19142091,7.0612072,58.0484,2,13.835495,21.90068,0.028818444,348,0.97908425,5,0.00025511131,6.6249055,26.331634,100.10302,0.26,133.05981,5,-1.8119266,1.5153061,15.508481,11.930166,1.2999384,0.19344826,0.24670274
2008_v3_09020959_ECG,1675,1975,861.91092,861,861,0.19140126,7.0616958,58.054439,2,13.834785,21.900548,0.028818444,348,0.97860806,5,0.00057957125,6.6190484,26.346648,100.04051,0.26,133.00678,5,-1.5810185,1.3226351,15.508387,11.92864,1.3000969,0.18983249,0.24370955
2008_v3_09020959_ECG,1680,1980,861.91667,861,861,0.19141378,7.0597256,58.035108,2,13.835237,21.902061,0.028818444,348,0.97835165,5,0.0059197292,6.5465283,26.416143,100.0026,0.26,132.97119,5,-1.6132075,1.3171141,15.509458,11.928298,1.3002239,0.19159248,0.24612239
2008_v3_09020959_ECG,1685,1985,861.91379,861,861,0.19141041,7.0605478,58.043022,2,13.835115,21.902061,0.028818444,348,0.97860806,5,0.015930476,6.5075552,26.489173,99.975925,0.26,132.98858,5,-1.5911215,1.3087248,15.50946,11.928012,1.3002552,0.18900878,0.24432394
2008_v3_09020959_ECG,1690,1990,861.92241,861,861,0.19140895,7.0587861,58.026287,2,13.835062,21.902259,0.028818444,348,0.97908425,5,0.028910196,6.5223751,26.459242,99.965648,0.26,132.97618,5,-1.5981308,1.3137584,15.509599,11.927709,1.3002999,0.19127366,0.24755442
2008_v3_09020959_ECG,1695,1995,861.91379,861,861,0.19143347,7.0592746,58.029045,2,13.835948,21.902456,0.028818444,348,0.97934066,5,0.054077983,6.6934566,26.175238,99.997122,0.26,132.91989,5,-1.588785,1.2966667,15.50974,11.929582,1.3001076,0.19280004,0.24915213
2008_v3_09020959_ECG,1700,2000,861.68103,861,861,0.15639076,7.8938777,72.472745,2,12.505629,19.800664,0.023054755,348,0.97956044,5,0.059789599,5.5121792,21.159253,81.831282,0.26,108.5625,5,-1.5573394,1.2864238,14.021402,10.778767,1.3008354,0.46303385,0.49373116
2008_v3_09020959_ECG,1705,2005,861.90517,861,861,0.19223017,7.0511932,57.954234,2,13.86471,21.965719,0.028818444,348,0.97956044,5,0.067581353,6.7444075,26.227867,100.28995,0.26,133.32981,5,-1.5794393,1.2728758,15.554538,11.938036,1.3029394,0.18603477,0.23077991
2008_v3_09020959_ECG,1710,2010,861.9023,861,860,0.19222674,7.0520165,57.962157,2,13.864586,21.965063,0.028818444,348,0.97978022,5,0.044301868,6.5365708,26.367472,100.40081,0.26,133.34916,5,-1.5810185,1.2679739,15.554073,11.938354,1.3028658,0.19113568,0.24553388
2008_v3_09020959_ECG,1715,2015,861.90517,861,861,0.19221865,7.0518458,57.961181,2,13.864294,21.965128,0.028818444,348,0.98,5,0.023734588,6.4490559,26.438474,100.52886,0.26,133.44013,5,-1.587963,1.28125,15.554119,11.937616,1.3029502,0.19008588,0.24460085
2008_v3_09020959_ECG,1720,2020,861.90805,861,861,0.19221054,7.0516889,57.960211,2,13.864002,21.965259,0.028818444,348,0.97978022,5,0.012478164,6.4544839,26.422175,100.47308,0.26,133.36221,5,-1.6108491,1.2826797,15.554212,11.936815,1.3030454,0.19321578,0.24762376
2008_v3_09020959_ECG,1725,2025,861.91667,861,860,0.19218612,7.0512175,57.957359,2,13.863121,21.965325,0.028818444,348,0.97930403,5,0.0047317865,6.4722766,26.371049,100.45557,0.26,133.30363,5,-1.625,1.2859477,15.554259,11.934709,1.3032793,0.18787384,0.24313089
2008_v3_09020959_ECG,1730,2030,861.91379,861,861,0.19221733,7.0500857,57.944401,2,13.864246,21.966178,0.028818444,348,0.97904762,5,0.00037774687,6.5146727,26.324157,100.47701,0.26,133.31622,5,-1.4316038,1.5081699,15.554863,11.936537,1.3031303,0.19080274,0.2456051
2008_v3_09020959_ECG,1735,2035,861.91092,861,860,0.192237,7.0496013,57.938403,2,13.864956,21.966309,0.028818444,348,0.97930403,5,0.0021256273,6.5141678,26.34492,100.49473,0.26,133.35595,5,-1.8238095,1.2663399,15.554955,11.938064,1.3029714,0.19518677,0.24931157
2008_v3_09020959_ECG,1740,2040,861.90805,861,861,0.19225665,7.049118,57.932417,2,13.865664,21.966112,0.028818444,348,0.97978022,5,0.0091478756,6.476587,26.387567,100.49821,0.26,133.37151,5,-1.8066038,1.2696078,15.554815,11.939892,1.3027601,0.19566583,0.24957882
2008_v3_09020959_ECG,1745,2045,861.9023,861,861,0.19226132,7.0501048,57.941306,2,13.865833,21.965522,0.028818444,348,0.98,5,0.018091989,6.4593788,26.37209,100.56193,0.26,133.4115,5,-1.8136792,1.2796053,15.554398,11.940827,1.3026231,0.19524147,0.24949413
2008_v3_09020959_ECG,1750,2050,861.9023,861,860,0.19225556,7.0504342,57.944777,2,13.865625,21.965653,0.028818444,348,0.97978022,5,0.032733151,6.4508153,26.400994,100.55659,0.26,133.44113,5,-1.8042453,1.2828947,15.554491,11.940223,1.3026969,0.19608613,0.25000767
2008_v3_09020959_ECG,1755,2055,861.91092,861,860,0.19224276,7.0492848,57.934929,2,13.865164,21.966506,0.028818444,348,0.97930403,5,0.053373632,6.5560285,26.249025,100.66543,0.26,133.52386,5,-1.8089623,1.2845395,15.555095,11.938364,1.3029502,0.19780864,0.25158503
2008_v3_09020959_ECG,1760,2060,861.67816,861,861,0.1533601,7.9259285,72.754057,2,12.383864,19.580397,0.023054755,348,0.97892155,5,0.057541094,5.4660328,20.838725,80.619665,0.26,106.98196,5,-1.8084112,1.31,13.865424,10.699075,1.2959461,0.45853888,0.49256485
2008_v3_09020959_ECG,1765,2065,861.9023,861,861,0.19399043,7.0287454,57.804677,2,13.928045,21.229771,0.025936599,348,0.97831441,5,0.065710502,6.742749,26.068688,102.00671,0.26,134.88385,5,-1.7727273,1.3116667,15.031529,12.729258,1.1808645,0.19302045,0.24131305
2008_v3_09020959_ECG,1770,2070,862.34006,861,860,0.25685512,6.7825209,52.890631,2,16.0267,22.791909,0.028901734,347,0.97726526,5,0.80739701,15.357225,52.181935,106.60928,0.49,174.95583,5,-1.7727273,1.3195364,16.139653,15.912946,1.0142467,0.20182003,0.26086808
2008_v3_09020959_ECG,1775,2075,862.76945,861,860,0.32054207,6.4500141,47.116131,2,17.903689,25.48563,0.034682081,347,0.97678907,5,2.4953761,25.973099,61.398855,135.966,0.45,225.83333,5,-1.8009259,1.3190789,18.04716,17.759058,1.0162228,0.20851196,0.27807718
2008_v3_09020959_ECG,1780,2080,862.76369,861,860,0.3206203,6.4485537,47.101476,2,17.905873,25.488295,0.034682081,347,0.97631288,5,2.2624019,25.363089,62.29609,135.63629,0.46,225.55787,5,-1.8055556,1.3157895,18.049047,17.761545,1.0161868,0.21587267,0.28469445
2008_v3_09020959_ECG,1785,2085,862.77233,861,860,0.32056363,6.4488618,47.105642,2,17.904291,25.486424,0.034682081,347,0.9760931,5,2.0595132,25.498741,62.211215,135.73924,0.46,225.50871,5,-1.8032407,1.3174342,18.047722,17.759701,1.0162177,0.21193728,0.28151306
2008_v3_09020959_ECG,1790,2090,862.77746,861,860,0.32151265,6.438072,46.956734,2,17.930774,25.524754,0.034782609,346,0.97631288,5,1.8738312,26.008589,62.000734,136.22336,0.46,226.10651,5,-1.7986111,1.3294702,18.074941,17.785438,1.0162775,0.21778899,0.28615869
2008_v3_09020959_ECG,1795,2095,862.76879,861,860,0.32154639,6.438493,46.959354,2,17.931715,25.525435,0.034782609,346,0.97678907,5,1.6394832,26.424179,61.894934,136.17012,0.45,226.12872,5,-2.4259259,1.4519868,18.075423,17.786845,1.0162242,0.21759699,0.28594604
2008_v3_09020959_ECG,1800,2100,862.76081,861,860,0.32064493,6.4482754,47.098398,2,17.906561,25.488522,0.034682081,347,0.97704548,5,1.4430358,26.359697,61.947074,135.73234,0.46,225.48215,5,-2.3333333,1.9391447,18.049208,17.762769,1.0161258,0.21886261,0.28702201
2008_v3_09020959_ECG,1805,2105,862.77233,861,860,0.32060987,6.4474207,47.092067,2,17.905582,25.489599,0.034682081,347,0.97678907,5,1.2880847,26.276333,62.090692,135.73703,0.46,225.39213,5,-2.6522727,1.9297386,18.049971,17.760019,1.0163261,0.22394657,0.29139819
2008_v3_09020959_ECG,1810,2110,862.76657,861,860,0.32064767,6.4472211,47.089283,2,17.906637,25.490052,0.034682081,347,0.97631288,5,1.1084473,26.442498,62.094386,135.7699,0.46,225.41523,5,-2.6759259,1.9457237,18.050292,17.761821,1.0162411,0.22729538,0.29397293
2008_v3_09020959_ECG,1815,2115,862.76879,861,860,0.32158696,6.437243,46.94751,2,17.932846,25.527025,0.034782609,346,0.9760931,5,0.97359272,26.890617,62.126949,136.04432,0.46,226.03548,5,-2.6444954,1.9748322,18.076549,17.787982,1.0162225,0.23029935,0.29631943
2008_v3_09020959_ECG,1820,2120,862.85838,861,860,0.31846394,6.5350646,47.708174,2,17.845558,24.314247,0.031884058,346,0.9760931,5,0.7857992,28.663143,64.999547,133.48319,0.49,227.93168,5,-2.5945946,2.0034247,17.21626,18.453408,0.93295826,0.21945513,0.2832867
2008_v3_09020959_ECG,1825,2125,862.44092,861,860,0.28710849,6.9086323,54.448655,2,16.944276,23.620678,0.028901734,347,0.9760931,5,0.85743189,26.558088,58.116863,117.39127,0.5,202.92365,5,-2.5923423,2.0189655,16.726385,17.1594,0.97476515,0.21634193,0.28047536
2008_v3_09020959_ECG,1830,2130,862.76657,861,860,0.32169969,6.4299582,46.934467,2,17.935989,25.526593,0.034682081,347,0.97561691,5,1.5593337,27.037006,61.084076,137.21324,0.45,226.89366,5,-2.6045455,2.0381944,18.076167,17.794706,1.0158172,0.22317442,0.29301086
2008_v3_09020959_ECG,1835,2135,862.77233,861,860,0.32168501,6.4294499,46.930469,2,17.93558,25.525857,0.034682081,347,0.97539713,5,1.4033179,26.952696,61.374749,137.04823,0.45,226.77899,5,-2.6238532,2.03125,18.075643,17.794413,1.0158044,0.21998251,0.29021145
2008_v3_09020959_ECG,1840,2140,862.77457,861,860,0.32263309,6.4192983,46.787504,2,17.96199,25.565262,0.034782609,346,0.97561691,5,1.196646,27.190018,61.678438,137.22362,0.45,227.28872,5,-2.650463,2.0260417,18.103626,17.819228,1.0159602,0.22730415,0.29861679
2008_v3_09020959_ECG,1845,2145,862.77168,861,860,0.32265786,6.4190209,46.784462,2,17.96268,25.565602,0.034782609,346,0.9760931,5,1.0210751,27.477,61.567457,137.28828,0.45,227.35381,5,-2.6565421,2.0297203,18.103867,17.820374,1.0159083,0.22585763,0.29691058
2008_v3_09020959_ECG,1850,2150,862.76945,861,860,0.32173282,6.4284355,46.920684,2,17.936912,25.52914,0.034682081,347,0.97634951,5,0.89695376,27.546228,61.271034,137.0241,0.45,226.73831,5,-2.7313084,2.0104167,18.077971,17.794735,1.0159168,0.22424309,0.29552406
2008_v3_09020959_ECG,1855,2155,862.76081,861,860,0.32176632,6.4288554,46.92333,2,17.937846,25.52914,0.034682081,347,0.9760931,5,0.76467138,27.633298,61.372217,137.01005,0.45,226.78024,5,-3.1550926,2.3251748,18.07797,17.796619,1.0158093,0.224524,0.29581242
2008_v3_09020959_ECG,1860,2160,862.76081,861,860,0.32170274,6.4308227,46.941863,2,17.936074,25.52614,0.034682081,347,0.97561691,5,0.66378408,27.679061,61.440617,136.89261,0.45,226.67607,5,-2.7761905,2.0815972,18.075847,17.795203,1.0157708,0.21923626,0.29081633
2008_v3_09020959_ECG,1865,2165,862.7659,861,860,0.3226204,6.4211457,46.803593,2,17.961637,25.56237,0.034782609,346,0.97539713,5,0.57590221,27.796463,61.666754,137.23299,0.45,227.27211,5,-2.7809524,2.078125,18.101579,17.820596,1.0157673,0.21969525,0.29132644
2008_v3_09020959_ECG,1870,2170,862.77457,861,860,0.32256932,6.4212607,46.805986,2,17.960215,25.562144,0.034782609,346,0.97539713,5,0.50295718,27.867153,61.530583,137.26927,0.45,227.16996,5,-2.7714286,2.0856643,18.101418,17.817893,1.0159124,0.21295044,0.28565968
2008_v3_09020959_ECG,1875,2175,862.76657,861,860,0.32165345,6.4313723,46.947961,2,17.934699,25.524951,0.034682081,347,0.97381471,5,0.45795986,27.959597,61.388694,136.79699,0.45,226.60324,5,-2.7642857,2.0874126,18.075005,17.793288,1.0158327,0.21285272,0.28553809
2008_v3_09020959_ECG,1880,2180,862.75793,861,860,0.32169846,6.4314329,46.947252,2,17.935954,25.474798,0.034682081,347,0.96927503,5,0.4267678,28.303189,60.987655,136.87086,0.45,226.58847,5,-2.8228155,2.0694444,18.039385,17.831923,1.0116343,0.20370469,0.26547583
2008_v3_09020959_ECG,1885,2185,862.51009,861,860,0.28383444,7.0112049,55.373902,2,16.847387,23.578059,0.028901734,347,0.96901862,5,0.96674912,26.600757,56.074965,116.74979,0.48,200.39227,5,-2.7980769,2.084507,16.69635,16.997081,0.98230688,0.20552925,0.26858337
2008_v3_09020959_ECG,1890,2190,862.74855,861,860,0.31929022,6.4376139,47.09336,2,17.868694,25.411284,0.034782609,346,0.9692384,5,0.79598249,27.558248,61.443151,134.90614,0.46,224.70352,5,-2.8106796,2.0774648,17.994589,17.741905,1.0142422,0.2091578,0.27827226
2008_v3_09020959_ECG,1895,2195,862.73988,861,860,0.31930026,6.4387711,47.102909,2,17.868975,25.4102,0.034782609,346,0.97114316,5,0.72766025,27.319121,61.852118,134.64261,0.46,224.54151,5,-2.8284314,2.0769231,17.993821,17.74325,1.0141221,0.20272652,0.27316038
2008_v3_09020959_ECG,1900,2200,862.73199,861,860,0.31837016,6.4496231,47.252632,2,17.84293,25.371916,0.034682081,347,0.97282814,5,0.68351454,27.172617,61.853442,134.19652,0.46,223.9061,5,-2.8663366,2.0659722,17.966634,17.718363,1.0140121,0.19910473,0.26803965
2008_v3_09020959_ECG,1905,2205,862.74352,861,860,0.31827218,6.4507644,47.264998,2,17.840184,25.370378,0.034682081,347,0.97257173,5,0.60923689,27.182057,61.836484,134.25432,0.46,223.8821,5,-2.8431373,2.0897887,17.965547,17.713935,1.0142042,0.19463159,0.26468617
2008_v3_09020959_ECG,1910,2210,862.74928,861,860,0.31823465,6.4509673,47.267789,2,17.839132,25.369808,0.034682081,347,0.97209554,5,0.56778539,27.29666,61.720736,134.25192,0.46,223.8371,5,-2.8308824,2.0839161,17.965143,17.712225,1.0142793,0.18695403,0.25804064
2008_v3_09020959_ECG,1915,2215,862.74855,861,860,0.3191279,6.4427093,47.141222,2,17.864151,25.40558,0.034782609,346,0.97187576,5,0.55911424,27.468403,61.819832,134.63412,0.46,224.48147,5,-2.788835,2.1426056,17.990549,17.736852,1.0143034,0.18361105,0.25551236
2008_v3_09020959_ECG,1920,2220,862.76301,861,860,0.31906831,6.4421145,47.137945,2,17.862483,25.405066,0.034782609,346,0.97187576,5,0.53464561,27.438244,61.81819,134.70508,0.46,224.49616,5,-2.5392157,1.8838028,17.990186,17.733861,1.014454,0.18262707,0.25492515
2008_v3_09020959_ECG,1925,2225,862.74928,861,860,0.31822887,6.4511423,47.269508,2,17.83897,25.36958,0.034682081,347,0.97235195,5,0.57669564,27.195356,61.800663,134.39664,0.46,223.96935,5,-2.5169903,1.8802817,17.964981,17.712063,1.0142794,0.18287425,0.25470394
2008_v3_09020959_ECG,1930,2230,862.75216,861,860,0.3182621,6.4496056,47.255476,2,17.839902,25.371802,0.034682081,347,0.97235195,5,0.60297605,27.087873,61.871778,134.46879,0.46,224.03142,5,-2.5097087,1.8838028,17.966555,17.712343,1.0143523,0.18697758,0.25847477
2008_v3_09020959_ECG,1935,2235,862.74352,861,860,0.31827796,6.4505803,47.263284,2,17.840346,25.371175,0.034682081,347,0.97209554,5,0.67278902,27.161147,61.737349,134.48314,0.46,224.05442,5,-2.5072816,1.8900709,17.966111,17.713688,1.0142502,0.19079716,0.26194089
2008_v3_09020959_ECG,1940,2240,862.75145,861,860,0.31917862,6.4406182,47.122087,2,17.865571,25.407804,0.034782609,346,0.97187576,5,0.72620166,27.562976,61.479591,135.05373,0.46,224.8225,5,-2.5544554,1.8882979,17.992125,17.738114,1.0143201,0.18530307,0.24998246
2008_v3_09020959_ECG,1945,2245,862.52023,861,860,0.27997785,7.0517825,55.902161,2,16.732539,23.356531,0.028985507,346,0.97209554,5,0.95668665,26.320743,56.44994,113.22299,0.5,196.95035,5,-2.5420792,1.9100719,16.539549,16.923328,0.97732251,0.1873722,0.2519714
2008_v3_09020959_ECG,1950,2250,862.74063,861,860,0.31869554,6.4346838,47.153258,2,17.852046,25.413175,0.034682081,347,0.97235195,5,0.46272512,27.691489,61.299781,134.44282,0.46,223.89682,5,-2.5668317,1.9172662,17.995853,17.707071,1.0163088,0.19089276,0.2656786
2008_v3_09020959_ECG,1955,2255,862.74352,861,860,0.31867102,6.4349599,47.156349,2,17.851359,25.412607,0.034682081,347,0.97352411,5,0.48065034,27.31034,61.793358,134.20385,0.46,223.7882,5,-2.6,1.9178571,17.99545,17.706095,1.0163421,0.19254327,0.26745994
2008_v3_09020959_ECG,1960,2260,862.7464,861,862,0.31865804,6.4348758,47.156027,2,17.850996,25.412607,0.034682081,347,0.97301185,5,0.52555104,27.158845,61.9359,134.25525,0.46,223.87555,5,-2.5866337,1.9142857,17.99545,17.705362,1.0163842,0.19212302,0.26681571
2008_v3_09020959_ECG,1965,2265,862.75145,861,862,0.31956123,6.4253822,47.01888,2,17.876276,25.448727,0.034782609,346,,5,0.57297582,27.265505,62.002922,134.68005,0.46,224.52146,5,-2.585,1.9244604,18.021103,17.730265,1.0164035,0.1896439,0.2649374
2008_v3_09020959_ECG,1970,2270,862.78529,861,862,0.32511896,6.3667242,46.183537,2,18.031055,25.671283,0.03539823,340,,5,0.58539131,27.701854,63.056624,137.1049,0.46,228.44877,5,-2.6035354,1.9522059,18.179171,17.881713,1.0166347,0.19206172,0.26820472
2008_v3_09020959_ECG,1975,2275,862.81194,861,862,0.32991962,6.3172641,45.485541,2,18.16369,25.861098,0.035928144,335,,5,0.60418006,28.058819,63.98743,139.18261,0.46,231.83304,5,-2.619898,1.9906015,18.313994,18.012131,1.0167589,0.19155867,0.26862317
2008_v3_09020959_ECG,1980,2280,862.84802,861,862,0.3358122,6.2586,44.659387,2,18.325179,26.093874,0.036585366,329,,5,0.64195143,28.45593,65.175849,141.69806,0.46,235.97179,5,-2.4157895,1.7519084,18.479346,18.169704,1.0170417,0.18730558,0.26391002
2008_v3_09020959_ECG,1985,2285,862.85976,861,862,0.33681819,6.247744,44.513184,2,18.352607,26.134269,0.036697248,328,,5,0.746709,28.332132,65.515288,142.06401,0.46,236.65814,5,-2.4441489,1.7424812,18.508037,18.19585,1.017157,0.18250356,0.25839954
2008_v3_09020959_ECG,1990,2290,862.85015,861,862,0.33790079,6.2383537,44.377571,2,18.382078,26.173794,0.036809816,327,,5,0.88441033,28.35242,65.598612,142.55755,0.46,237.39299,5,-2.2868421,2.0438931,18.536118,18.226736,1.0169741,0.18565077,0.26363235
2008_v3_09020959_ECG,1995,2295,862.8685,861,862,0.33781394,6.2378159,44.375426,2,18.379716,26.174263,0.036809816,327,,5,1.0511996,28.305069,65.423665,142.57972,0.46,237.35966,5,-2.7319588,2.0538462,18.536451,18.221632,1.0172772,0.18769469,0.26565654
2008_v3_09020959_ECG,2000,2300,862.8628,861,862,0.33704228,6.2409923,44.449948,2,18.358711,26.148073,0.036697248,328,,5,1.2082489,28.288246,64.941033,142.18732,0.46,236.62485,5,-2.7578125,2.0458015,18.517815,18.198217,1.017562,0.1882512,0.26461553
2008_v3_09020959_ECG,2005,2305,862.6128,861,862,0.29976094,6.7973738,52.218776,2,17.313606,24.259303,0.03058104,328,,5,0.869217,28.038918,58.802349,123.50301,0.48,211.21349,5,-2.7190722,2.0284091,17.180206,17.445985,0.98476564,0.18459626,0.27451328
2008_v3_09020959_ECG,2010,2310,862.85366,861,862,0.33658402,6.2398285,44.452615,2,18.346226,26.078217,0.036697248,328,,5,0.61405923,29.196004,64.24735,144.02836,0.45,238.08577,5,-2.7447917,2.0075758,18.468345,18.22329,1.0134473,0.19806768,0.3026152
2008_v3_09020959_ECG,2015,2315,862.86544,861,860,0.33758307,6.2293277,44.309851,2,18.373434,26.118301,0.036809816,327,,5,0.73529088,29.026256,64.811542,144.38117,0.45,238.95426,5,-2.7763158,1.9981061,18.496818,18.249215,1.0135679,0.19779334,0.30272934
2008_v3_09020959_ECG,2020,2320,862.86239,861,860,0.33759143,6.2295963,44.311807,2,18.373661,26.11836,0.036809816,327,,5,0.8650425,28.857114,64.920829,144.38571,0.45,239.0287,5,-2.7845745,1.9757463,18.49686,18.249631,1.0135471,0.19924776,0.30424956
2008_v3_09020959_ECG,2025,2325,862.84756,861,860,0.33661889,6.2398352,44.451717,2,18.347177,26.078569,0.036697248,328,,5,0.99277738,28.673039,64.701185,144.03008,0.45,238.39708,5,-2.6881443,1.9906015,18.468594,18.224951,1.0133687,0.19953222,0.30424935
2008_v3_09020959_ECG,2030,2330,862.84756,861,860,0.33658831,6.2407161,44.459787,2,18.346343,26.077572,0.036697248,328,,5,1.1697126,28.47659,64.742105,144.02544,0.45,238.41385,5,-2.7447917,2.0131579,18.467888,18.223988,1.0133834,0.19394149,0.2990284
2008_v3_09020959_ECG,2035,2335,862.85976,861,860,0.33653073,6.2403568,44.458374,2,18.344774,26.077161,0.036697248,328,,5,1.3782907,28.335051,64.683505,144.00608,0.45,238.40293,5,-2.9974227,2.2310606,18.467597,18.221123,1.0135268,0.19125899,0.29647397
2008_v3_09020959_ECG,2040,2340,862.8685,861,860,0.33750719,6.230995,44.325603,2,18.371369,26.116363,0.036809816,327,,5,1.5865902,28.383904,64.879555,144.26547,0.45,239.11552,5,-3.140625,1.5534351,18.495446,18.246448,1.0136464,0.18361811,0.29239366
2008_v3_09020959_ECG,2045,2345,862.85933,861,860,0.33756297,6.2308997,44.323433,2,18.372887,26.117303,0.036809816,327,,5,1.8064899,28.222101,64.875344,144.32315,0.45,239.22709,5,-2.5132979,1.5673077,18.496112,18.24883,1.0135506,0.18383441,0.29226731
2008_v3_09020959_ECG,2050,2350,862.85671,861,860,0.33652069,6.2411373,44.465184,2,18.3445,26.077982,0.036697248,328,,5,2.0040568,27.742916,64.781397,143.94708,0.45,238.47545,5,-1.7026316,1.2692308,18.468179,18.219982,1.0136222,0.18667569,0.29414146
2008_v3_09020959_ECG,2055,2355,862.85061,861,860,0.3365189,6.2421966,44.473965,2,18.344451,26.076399,0.036697248,328,,5,2.222867,27.389993,64.97708,143.96167,0.45,238.55162,5,-1.6842105,1.2674419,18.467057,18.221021,1.0135029,0.18245109,0.29140051
2008_v3_09020959_ECG,2060,2360,862.85366,861,860,0.33647393,6.2429935,44.481683,2,18.343226,26.07464,0.036697248,328,,5,2.4773997,27.566556,64.821552,143.72997,0.45,238.59548,5,-1.6614583,1.2655039,18.465811,18.219815,1.0135016,0.1758842,0.28580871
2008_v3_09020959_ECG,2065,2365,862.60671,861,861,0.29382956,6.8663016,53.039758,2,17.141457,24.594448,0.033639144,328,,5,1.5717882,19.877661,45.019288,148.11773,0.3,214.58647,5,-1.7047872,1.2348485,17.414604,16.863887,1.0326566,0.16331058,0.26384336
2008_v3_09020959_ECG,2070,2370,862.39329,861,861,0.263432,6.6555307,51.115686,2,16.230589,25.007889,0.036697248,328,,5,0.30823027,11.136935,41.836822,139.12171,0.3,192.4037,5,-1.6842105,1.2234848,17.710348,14.60163,1.2129022,0.16378133,0.26137933
2008_v3_09020959_ECG,2075,2375,861.93313,861,861,0.19510527,6.8320339,54.616778,2,13.968009,22.052667,0.030487805,329,,5,0.06244094,6.4047842,27.015246,104.43817,0.26,137.92064,5,-1.6692708,1.2272727,15.617414,12.09574,1.29115,0.16026984,0.25503851
2008_v3_09020959_ECG,2080,2380,861.93009,861,860,0.19505302,6.8354953,54.651977,2,13.966139,22.049694,0.030487805,329,,5,0.037358464,6.314679,27.120018,104.43855,0.26,137.91061,5,-1.6736842,1.2272727,15.61531,12.094137,1.2911471,0.153837,0.24858683
2008_v3_09020959_ECG,2085,2385,861.92705,861,861,0.19506174,6.8356774,54.65306,2,13.96645,22.04928,0.030487805,329,,5,0.023416957,6.3383377,27.060783,104.48851,0.26,137.91105,5,-1.6314433,1.2346154,15.615016,12.095236,1.2910054,0.15058597,0.24542313
2008_v3_09020959_ECG,2090,2390,861.93313,861,861,0.1950382,6.8356544,54.654316,2,13.965608,22.049418,0.030487805,329,,5,0.012973435,6.3635496,27.074564,104.42727,0.26,137.87836,5,-1.6262887,1.253937,15.615114,12.093164,1.2912348,0.14879835,0.24389704
2008_v3_09020959_ECG,2095,2395,861.93921,861,861,0.19502068,6.8352817,54.65221,2,13.964981,22.049556,0.030487805,329,,5,0.0040008809,6.4111182,27.040694,104.4353,0.26,137.89111,5,-1.4097938,1.5177165,15.615213,12.091588,1.2914112,0.15042345,0.2448513
2008_v3_09020959_ECG,2100,2400,861.93921,861,861,0.19502678,6.8349549,54.648794,2,13.965199,22.049556,0.030487805,329,,5,0.0032864727,6.4121828,27.063962,104.44145,0.26,137.92088,5,-1.9770408,1.2459677,15.61521,12.092096,1.2913568,0.14627496,0.24123954
2008_v3_09020959_ECG,2105,2405,861.93009,861,861,0.19502254,6.837143,54.669054,2,13.965047,22.048865,0.030487805,329,,5,0.0083366626,6.3853099,27.084012,104.45294,0.26,137.9306,5,-1.5,1.23,15.614723,12.092374,1.2912868,0.14825159,0.24298281
2008_v3_09020959_ECG,2110,2410,861.93617,861,861,0.19498067,6.8380766,54.680599,2,13.963548,22.047482,0.030487805,329,,5,0.017909351,6.3140316,27.150454,104.41327,0.26,137.89566,5,-1.4617347,1.2242063,15.613744,12.090176,1.2914406,0.14227743,0.23807814
2008_v3_09020959_ECG,2115,2415,861.93636,861,861,0.19437588,6.8490805,54.85327,2,13.941875,22.013743,0.030395137,330,,5,0.031714074,6.2850442,27.057914,104.09117,0.26,137.46584,5,-1.4375,1.23,15.589777,12.071065,1.2914998,0.13916919,0.23543096
2008_v3_09020959_ECG,2120,2420,861.94529,861,861,0.19496041,6.837209,54.674067,2,13.962823,22.047275,0.030487805,329,,5,0.045328637,6.3732867,27.097288,104.33147,0.26,137.84737,5,-1.4232673,1.2298387,15.613595,12.088692,1.2915869,0.13976688,0.23596307
2008_v3_09020959_ECG,2125,2425,862.03343,861,861,0.19147754,7.0504738,56.390247,2,13.837541,20.493678,0.027439024,329,,5,0.16147054,7.9242163,30.613368,100.42852,0.3,139.12757,5,-1.4125,1.2317073,14.511309,13.129242,1.1052664,0.1364263,0.22477837
2008_v3_09020959_ECG,2130,2430,862.3811,861,861,0.26061579,6.6474444,50.842776,2,16.143599,24.764765,0.033639144,328,,5,0.84851213,16.158402,45.031068,101.26923,0.44,163.30722,5,-1.4009901,1.2397541,17.536582,14.618477,1.1996175,0.13801018,0.22167604
2008_v3_09020959_ECG,2135,2435,862.37805,861,861,0.26060282,6.6485024,50.852868,2,16.143197,25.48508,0.036697248,328,,5,0.76524657,15.483866,45.748449,101.52885,0.45,163.52641,5,-1.3848039,1.2417355,18.048287,13.980878,1.2909266,0.14063418,0.2336664
2008_v3_09020959_ECG,2140,2440,862.84146,861,861,0.32696561,6.3204334,45.278392,2,18.082191,28.006552,0.042813456,328,,5,2.3877133,22.84392,58.392153,139.59229,0.42,223.21607,5,-1.372549,1.25,19.833973,16.141398,1.2287643,0.14641206,0.25134628
2008_v3_09020959_ECG,2145,2445,862.84451,861,861,0.32692682,6.3210834,45.284861,2,18.081118,28.005788,0.042813456,328,,5,2.138057,22.428854,59.052226,139.63194,0.42,223.25108,5,-1.3602941,1.2521186,19.833432,16.13966,1.228863,0.14252031,0.24737839
2008_v3_09020959_ECG,2150,2450,862.84146,861,861,0.3269228,6.3217151,45.290242,2,18.081007,28.005297,0.042813456,328,,5,1.9198733,22.626036,59.028006,139.7068,0.42,223.28071,5,-1.3663366,1.2231405,19.833084,16.139838,1.2288279,0.14160453,0.24691866
2008_v3_09020959_ECG,2155,2455,862.85321,861,861,0.32788023,6.3114622,45.148255,2,18.107463,28.048107,0.042944785,327,,5,1.7230531,23.013364,59.005949,140.16096,0.42,223.90333,5,-1.3762376,1.4566116,19.863496,16.161745,1.229044,0.14239129,0.24765748
2008_v3_09020959_ECG,2160,2460,862.85015,861,861,0.32790692,6.3111755,45.145179,2,18.1082,28.048818,0.042944785,327,,5,1.5093426,23.296653,58.953546,140.17758,0.42,223.93712,5,-2.1460396,1.446281,19.863999,16.162778,1.2289965,0.14303573,0.24794922
2008_v3_09020959_ECG,2165,2465,862.84451,861,861,0.32689624,6.3220022,45.293326,2,18.080272,28.005406,0.042813456,328,,5,1.3065897,23.3112,58.827757,139.7841,0.42,223.22965,5,-2.2965686,1.9897541,19.833161,16.138097,1.2289653,0.13829721,0.24350756
2008_v3_09020959_ECG,2170,2470,862.83841,861,861,0.32690653,6.3227199,45.299013,2,18.080557,28.004914,0.042813456,328,,5,1.1378856,23.355021,58.946112,139.80849,0.42,223.24751,5,-2.6432039,2.025,19.832813,16.139163,1.2288626,0.13497962,0.24096423
2008_v3_09020959_ECG,2175,2475,862.84146,861,861,0.32687999,6.3230066,45.302093,2,18.079823,28.004532,0.042813456,328,,5,0.97408679,23.456173,59.021265,139.76838,0.42,223.2199,5,-2.6274038,2.03125,19.832543,16.137851,1.2289457,0.1338742,0.24042538
2008_v3_09020959_ECG,2180,2480,862.85976,861,861,0.32679984,6.3223541,45.298664,2,18.077606,28.004314,0.042813456,328,,5,0.84323852,23.709592,58.896009,139.77145,0.42,223.22029,5,-2.6,2.0614407,19.832388,16.133074,1.2293,0.12990555,0.23687682
2008_v3_09020959_ECG,2185,2485,862.88685,861,861,0.32791047,6.3049221,45.09306,2,18.108298,28.009913,0.042944785,327,,5,0.76734014,24.186626,58.546004,140.43853,0.42,223.9385,5,-2.602381,2.0677966,19.836317,16.196959,1.2246939,0.12326519,0.22522174
2008_v3_09020959_ECG,2190,2490,862.57927,861,861,0.32956556,5.670452,43.47856,2,18.153941,28.39294,0.04587156,328,,5,0.88124763,23.177435,54.691266,138.5927,0.39,217.34265,5,-2.5607477,2.0897436,20.10753,15.963031,1.2596311,0.12722341,0.23955594
2008_v3_09020959_ECG,2195,2495,862.81707,861,861,0.34635787,5.4125594,39.830032,2,18.610692,29.282135,0.051987768,328,,5,1.2440864,23.368749,55.134479,144.59559,0.38,224.3429,5,-2.5801887,2.0247934,20.737328,16.207373,1.2794996,0.12677958,0.24395322
2008_v3_09020959_ECG,2200,2500,862.79573,861,861,0.34697038,5.4010797,39.714691,2,18.627141,29.295813,0.051987768,328,,5,1.0212984,23.283833,55.484041,145.10981,0.38,224.89898,5,-2.5880952,2.0020661,20.747014,16.23275,1.278096,0.1306731,0.26317789
2008_v3_09020959_ECG,2205,2505,862.78287,861,861,0.34847725,5.3842407,39.508178,2,18.667545,29.352209,0.052147239,327,,5,0.85223969,23.550329,55.65315,145.9426,0.38,225.99832,5,-2.5619048,2.0444915,20.787048,16.274309,1.2772922,0.13677968,0.28852327
2008_v3_09020959_ECG,2210,2510,862.77982,861,861,0.34894524,5.373329,39.406165,2,18.680076,29.368716,0.052147239,327,,5,0.71997269,23.730036,55.642481,146.44501,0.38,226.5375,5,-2.5731132,2.0833333,20.798743,16.288118,1.2769273,0.14931268,0.31755363
2008_v3_09020959_ECG,2215,2515,862.80488,861,861,0.34854285,5.3618751,39.347685,2,18.669302,29.358691,0.051987768,328,,5,0.64109334,23.714904,55.444274,146.05244,0.38,225.85271,5,-2.5902778,2.0940171,20.791538,16.272605,1.2777019,0.15841189,0.34124029
2008_v3_09020959_ECG,2220,2520,862.79573,861,861,0.349845,5.3341331,39.067653,2,18.704144,29.419823,0.051987768,328,,5,0.56633105,23.803949,55.437824,146.77016,0.38,226.57826,5,-2.7152778,2.3495763,20.834837,16.297225,1.2784285,0.15854608,0.35237482
2008_v3_09020959_ECG,2225,2525,862.78049,861,861,0.35076512,5.3147281,38.881253,2,18.728725,29.450835,0.051987768,328,,5,0.44201218,23.865826,55.415405,147.68542,0.38,227.40867,5,-2.5717593,2.1122881,20.856797,16.325571,1.2775539,0.16080266,0.36882232
2008_v3_09020959_ECG,2230,2530,862.80183,861,861,0.35140098,5.2969496,38.716851,2,18.745692,29.473204,0.051987768,328,,5,0.39047573,23.780931,55.460253,148.40804,0.37,228.0397,5,-2.5698198,2.1666667,20.872628,16.344275,1.2770605,0.15767955,0.37914681
2008_v3_09020959_ECG,2235,2535,862.82263,861,861,0.35301752,5.2727073,38.45844,2,18.788761,29.541382,0.052147239,327,,5,0.32708298,23.803737,55.778694,149.52848,0.37,229.438,5,-2.6306306,2.2435345,20.921023,16.381265,1.2771311,0.16007483,0.39588081
2008_v3_09020959_ECG,2240,2540,862.77744,861,861,0.3529075,5.2652462,38.415743,2,18.785832,29.517682,0.051987768,328,,5,0.33135768,23.915614,55.59547,149.85828,0.37,229.70072,5,-2.5307018,2.2719298,20.904128,16.396111,1.2749443,0.16037789,0.40036791
2008_v3_09020959_ECG,2245,2545,862.77134,861,861,0.35380382,5.2451126,38.2295,2,18.809674,29.552472,0.051987768,328,,5,0.3372589,24.229268,55.12127,151.24321,0.36,230.931,5,-2.5304348,2.3464912,20.928779,16.419313,1.274644,0.16235937,0.40312388
2008_v3_09020959_ECG,2250,2550,862.55183,861,861,0.31372819,5.5859464,44.077917,2,17.712374,27.751298,0.04587156,328,,5,0.74830529,22.80932,50.176533,128.63188,0.39,202.36604,5,-2.5769231,2.4084821,19.653197,15.53088,1.2654272,0.16358896,0.41357601
2008_v3_09020959_ECG,2255,2555,,,,,,,,,,,,,2,,,,,,,2,,,,,,,
2008_v3_09020959_ECG,2260,2560,,,,,,,,,,,,,2,,,,,,,2,,,,,,,
2008_v3_09020959_ECG,2265,2565,,,,,,,,,,,,,2,,,,,,,2,,,,,,,
2008_v3_09020959_ECG,2270,2570,,,,,,,,,,,,,2,,,,,,,2,,,,,,,
2008_v3_09020959_ECG,2275,2575,,,,,,,,,,,,,2,,,,,,,2,,,,,,,
2008_v3_09020959_ECG,2280,2580,,,,,,,,,,,,,2,,,,,,,2,,,,,,,
2008_v3_09020959_ECG,2285,2585,,,,,,,,,,,,,2,,,,,,,2,,,,,,,
2008_v3_09020959_ECG,2290,2590,,,,,,,,,,,,,2,,,,,,,2,,,,,,,
2008_v3_09020959_ECG,2295,2595,,,,,,,,,,,,,2,,,,,,,2,,,,,,,
2008_v3_09020959_ECG,2300,2600,,,,,,,,,,,,,2,,,,,,,2,,,,,,,
2008_v3_09020959_ECG,2305,2605,,,,,,,,,,,,,2,,,,,,,2,,,,,,,
2008_v3_09020959_ECG,2310,2610,,,,,,,,,,,,,2,,,,,,,2,,,,,,,
2008_v3_09020959_ECG,2315,2615,,,,,,,,,,,,,2,,,,,,,2,,,,,,,
2008_v3_09020959_ECG,2320,2620,,,,,,,,,,,,,2,,,,,,,2,,,,,,,
2008_v3_09020959_ECG,2325,2625,,,,,,,,,,,,,2,,,,,,,2,,,,,,,
2008_v3_09020959_ECG,2330,2630,,,,,,,,,,,,,2,,,,,,,2,,,,,,,
2008_v3_09020959_ECG,2335,2635,,,,,,,,,,,,,2,,,,,,,2,,,,,,,
2008_v3_09020959_ECG,2340,2640,,,,,,,,,,,,,2,,,,,,,2,,,,,,,
2008_v3_09020959_ECG,2345,2645,,,,,,,,,,,,,2,,,,,,,2,,,,,,,
2008_v3_09020959_ECG,2350,2650,,,,,,,,,,,,,2,,,,,,,2,,,,,,,
2008_v3_09020959_ECG,2355,2655,,,,,,,,,,,,,2,,,,,,,2,,,,,,,
2008_v3_09020959_ECG,2360,2660,,,,,,,,,,,,,2,,,,,,,2,,,,,,,
2008_v3_09020959_ECG,2365,2665,,,,,,,,,,,,,2,,,,,,,2,,,,,,,
2008_v3_09020959_ECG,2370,2670,,,,,,,,,,,,,2,,,,,,,2,,,,,,,
2008_v3_09020959_ECG,2375,2675,,,,,,,,,,,,,2,,,,,,,2,,,,,,,
2008_v3_09020959_ECG,2380,2680,,,,,,,,,,,,,2,,,,,,,2,,,,,,,
2008_v3_09020959_ECG,2385,2685,,,,,,,,,,,,,2,,,,,,,2,,,,,,,
2008_v3_09020959_ECG,2390,2690,,,,,,,,,,,,,2,,,,,,,2,,,,,,,
2008_v3_09020959_ECG,2395,2695,,,,,,,,,,,,,2,,,,,,,2,,,,,,,
2008_v3_09020959_ECG,2400,2700,,,,,,,,,,,,,2,,,,,,,2,,,,,,,
2008_v3_09020959_ECG,2405,2705,,,,,,,,,,,,,2,,,,,,,2,,,,,,,
2008_v3_09020959_ECG,2410,2710,,,,,,,,,,,,,2,,,,,,,2,,,,,,,
2008_v3_09020959_ECG,2415,2715,,,,,,,,,,,,,2,,,,,,,2,,,,,,,
2008_v3_09020959_ECG,2420,2720,,,,,,,,,,,,,2,,,,,,,2,,,,,,,
2008_v3_09020959_ECG,2425,2725,,,,,,,,,,,,,2,,,,,,,2,,,,,,,
2008_v3_09020959_ECG,2430,2730,,,,,,,,,,,,,2,,,,,,,2,,,,,,,
2008_v3_09020959_ECG,2435,2735,,,,,,,,,,,,,2,,,,,,,2,,,,,,,
2008_v3_09020959_ECG,2440,2740,,,,,,,,,,,,,2,,,,,,,2,,,,,,,
2008_v3_09020959_ECG,2445,2745,,,,,,,,,,,,,2,,,,,,,2,,,,,,,
2008_v3_09020959_ECG,2450,2750,,,,,,,,,,,,,2,,,,,,,2,,,,,,,
2008_v3_09020959_ECG,2455,2755,,,,,,,,,,,,,2,,,,,,,2,,,,,,,
2008_v3_09020959_ECG,2460,2760,,,,,,,,,,,,,2,,,,,,,2,,,,,,,
2008_v3_09020959_ECG,2465,2765,,,,,,,,,,,,,2,,,,,,,2,,,,,,,
2008_v3_09020959_ECG,2470,2770,,,,,,,,,,,,,2,,,,,,,2,,,,,,,
2008_v3_09020959_ECG,2475,2775,,,,,,,,,,,,,2,,,,,,,2,,,,,,,
2008_v3_09020959_ECG,2480,2780,,,,,,,,,,,,,2,,,,,,,2,,,,,,,
2008_v3_09020959_ECG,2485,2785,,,,,,,,,,,,,2,,,,,,,2,,,,,,,
2008_v3_09020959_ECG,2490,2790,,,,,,,,,,,,,2,,,,,,,2,,,,,,,
2008_v3_09020959_ECG,2495,2795,,,,,,,,,,,,,2,,,,,,,2,,,,,,,
2008_v3_09020959_ECG,2500,2800,,,,,,,,,,,,,2,,,,,,,2,,,,,,,
2008_v3_09020959_ECG,2505,2805,,,,,,,,,,,,,2,,,,,,,2,,,,,,,
2008_v3_09020959_ECG,2510,2810,,,,,,,,,,,,,2,,,,,,,2,,,,,,,
2008_v3_09020959_ECG,2515,2815,,,,,,,,,,,,,2,,,,,,,2,,,,,,,
2008_v3_09020959_ECG,2520,2820,,,,,,,,,,,,,2,,,,,,,2,,,,,,,
2008_v3_09020959_ECG,2525,2825,,,,,,,,,,,,,2,,,,,,,2,,,,,,,
2008_v3_09020959_ECG,2530,2830,,,,,,,,,,,,,2,,,,,,,2,,,,,,,
2008_v3_09020959_ECG,2535,2835,,,,,,,,,,,,,2,,,,,,,2,,,,,,,
2008_v3_09020959_ECG,2540,2840,,,,,,,,,,,,,2,,,,,,,2,,,,,,,
2008_v3_09020959_ECG,2545,2845,,,,,,,,,,,,,2,,,,,,,2,,,,,,,
2008_v3_09020959_ECG,2550,2850,,,,,,,,,,,,,2,,,,,,,2,,,,,,,
2008_v3_09020959_ECG,2555,2855,,,,,,,,,,,,,2,,,,,,,2,,,,,,,
2008_v3_09020959_ECG,2560,2860,,,,,,,,,,,,,2,,,,,,,2,,,,,,,
2008_v3_09020959_ECG,2565,2865,,,,,,,,,,,,,2,,,,,,,2,,,,,,,
2008_v3_09020959_ECG,2570,2870,,,,,,,,,,,,,2,,,,,,,2,,,,,,,
2008_v3_09020959_ECG,2575,2875,,,,,,,,,,,,,2,,,,,,,2,,,,,,,
2008_v3_09020959_ECG,2580,2880,,,,,,,,,,,,,2,,,,,,,2,,,,,,,
2008_v3_09020959_ECG,2585,2885,,,,,,,,,,,,,2,,,,,,,2,,,,,,,
2008_v3_09020959_ECG,2590,2890,,,,,,,,,,,,,2,,,,,,,2,,,,,,,
2008_v3_09020959_ECG,2595,2895,,,,,,,,,,,,,2,,,,,,,2,,,,,,,
2008_v3_09020959_ECG,2600,2900,,,,,,,,,,,,,2,,,,,,,2,,,,,,,
2008_v3_09020959_ECG,2605,2905,863.28986,861,860,0.39059016,4.5867253,31.830209,2.25,19.763354,28.580008,0.063953488,345,0.89418383,5,0.70667147,25.03864,75.908659,176.48711,0.43,278.14108,5,-2.4233871,2.4087591,20.238538,19.27646,1.0499095,0.32250496,0.49947317
2008_v3_09020959_ECG,2610,2910,863.28613,861,860,0.38864543,4.6097348,32.058185,2,19.714092,28.521185,0.063768116,346,0.90656478,5,0.61607488,25.300216,74.93885,175.69336,0.43,276.5485,5,-3.016129,2.6660584,20.196815,19.219249,1.0508639,0.30524407,0.46217664
2008_v3_09020959_ECG,2615,2915,863.01734,861,860,0.37284608,4.827406,34.725089,2,19.309223,28.108743,0.060869565,346,0.91466002,5,0.49091331,24.471541,68.82092,166.32913,0.41,260.1125,5,-2.9778226,2.6470588,19.904739,18.694746,1.0647237,0.30105668,0.45675163
2008_v3_09020959_ECG,2620,2920,863.26301,861,860,0.41006106,4.6014242,31.033069,2,20.249964,29.745198,0.066666667,346,0.92169299,5,0.98801184,24.58422,73.699665,187.53536,0.39,286.80726,5,-2.9369919,2.5772059,21.063579,19.402262,1.0856249,0.17045519,0.36968531
2008_v3_09020959_ECG,2625,2925,863.2948,861,860,0.40951864,4.6064106,31.086061,2,20.236567,29.731211,0.066666667,346,0.92715087,5,0.81743659,24.36895,73.908252,187.31953,0.39,286.41417,5,-2.8954918,2.5404412,21.053676,19.385046,1.0860782,0.1617993,0.35045138
2008_v3_09020959_ECG,2630,2930,863.27536,861,860,0.41028733,4.6097002,31.077561,2,20.255551,29.749096,0.066860465,345,0.92978823,5,0.69644608,24.456156,74.323187,187.42149,0.4,286.89728,5,-2.9663866,2.5055147,21.066429,19.410828,1.0852927,0.15632235,0.3355241
2008_v3_09020959_ECG,2635,2935,863.30058,861,860,0.40884852,4.6170865,31.182548,2,20.220003,29.704096,0.066666667,346,0.93264537,5,0.57554912,24.262237,74.183376,186.81344,0.4,285.83461,5,-2.9110169,2.4087591,21.034475,19.371317,1.0858567,0.14832137,0.32727583
2008_v3_09020959_ECG,2640,2940,863.28324,861,860,0.40851085,4.6253073,31.249843,2,20.211651,29.690432,0.066666667,346,0.94026442,5,0.46612373,24.513749,74.153895,186.33113,0.4,285.4649,5,-2.8205128,2.3521898,21.024796,19.364391,1.0857453,0.13925677,0.30881998
2008_v3_09020959_ECG,2645,2945,863.30058,861,860,0.40785722,4.6342032,31.333868,2,20.195475,29.672707,0.066666667,346,0.94455013,5,0.38596143,24.824071,73.731058,185.9519,0.4,284.89299,5,-3.0402542,2.5055147,21.012247,19.344247,1.0862272,0.13742429,0.29391904
2008_v3_09020959_ECG,2650,2950,863.30347,861,860,0.4071917,4.6456956,31.433073,2,20.178992,29.64769,0.066666667,346,0.95096039,5,0.32944815,24.845489,73.731713,185.71136,0.4,284.61801,5,-2.474359,2.0456204,20.994531,19.329073,1.0861634,0.13215449,0.28002939
2008_v3_09020959_ECG,2655,2955,863.30435,861,860,0.40759606,4.6532352,31.460364,2,20.189008,29.660237,0.066860465,345,0.95890911,5,0.29096104,24.623282,74.189058,185.84932,0.4,284.95262,5,-2.5173913,2.0529197,21.003505,19.34024,1.0860002,0.11627572,0.23968324
2008_v3_09020959_ECG,2660,2960,863.2948,861,860,0.40571574,4.6746067,31.668243,2,20.142387,29.59098,0.066666667,346,0.96605196,5,0.26387448,24.419944,74.563536,184.06442,0.41,283.31178,5,-2.5372807,2.0452899,20.954371,19.296265,1.0859289,0.11146167,0.21711225
2008_v3_09020959_ECG,2665,2965,863.25723,861,860,0.40500901,4.6922629,31.81355,2,20.124836,29.558686,0.066666667,346,0.97484317,5,0.23933937,24.490048,74.084672,183.69075,0.4,282.50481,5,-2.5570175,2.0471014,20.931504,19.284454,1.0854081,0.11066372,0.20157356
2008_v3_09020959_ECG,2670,2970,863.28902,861,860,0.40412492,4.7036972,31.922519,2,20.102859,29.489571,0.066666667,346,0.98281143,5,0.28010858,26.078502,72.752409,183.10293,0.4,282.21395,5,-2.5679825,2.0565693,20.882513,19.291721,1.0824599,0.10964691,0.19888923
2008_v3_09020959_ECG,2675,2975,862.5562,861,860,0.32901634,5.1465881,40.463395,2,18.138808,28.069742,0.060693642,347,0.98355351,5,1.0647935,13.395484,48.405708,169.03579,0.29,231.90177,5,-2.625,2.025,19.87705,16.215289,1.2258215,0.24435415,0.3020368
2008_v3_09020959_ECG,2680,2980,862.80347,861,860,0.36583952,4.8671995,35.480942,2,19.126932,29.666992,0.066666667,346,0.98307732,5,1.0832068,14.558999,53.617292,187.96968,0.29,257.22918,5,-2.6272321,2.0413669,21.008199,17.039208,1.2329329,0.24179364,0.29812578
2008_v3_09020959_ECG,2685,2985,862.81214,861,860,0.36585156,4.865587,35.469774,2,19.127247,29.66836,0.066666667,346,0.98333373,5,0.95866633,14.273643,53.908684,187.96596,0.29,257.10695,5,-2.6450893,2.0675182,21.009166,17.038722,1.2330248,0.25130776,0.31310547
2008_v3_09020959_ECG,2690,2990,862.80115,861,860,0.36483607,4.8734741,35.575355,2,19.100682,29.626822,0.066473988,347,0.98333373,5,0.86464517,14.070947,53.932396,187.61248,0.29,256.48047,5,-2.6540179,2.0784672,20.979666,17.015457,1.2329769,0.25529744,0.31707777
2008_v3_09020959_ECG,2695,2995,862.80403,861,860,0.3648401,4.8729308,35.571626,2,19.100788,29.627504,0.066473988,347,0.98047659,5,0.76511974,14.165377,53.927341,187.61616,0.29,256.474,5,-2.6779279,2.0597826,20.980149,17.015097,1.2330314,0.2578934,0.31817796
2008_v3_09020959_ECG,2700,3000,862.80115,861,860,0.36487653,4.8726246,35.567476,2,19.101742,29.628334,0.066473988,347,0.98022018,5,0.70173099,14.349966,53.817851,187.64258,0.29,256.51213,5,-2.7068182,2.067029,20.980737,17.016514,1.2329632,0.26580843,0.32426323
2008_v3_09020959_ECG,2705,3005,862.81214,861,860,0.36591533,4.8642531,35.45743,2,19.128913,29.671389,0.066666667,346,0.98069637,5,0.64588623,14.474105,53.904251,188.18423,0.29,257.20847,5,-2.5136364,2.2791971,21.011312,17.039818,1.2330714,0.26736177,0.32539154
2008_v3_09020959_ECG,2710,3010,862.81503,861,860,0.36591931,4.8637056,35.453721,2,19.129017,29.671731,0.066666667,346,0.97857182,5,0.60222828,14.451248,53.934364,188.2021,0.29,257.18994,5,-2.6779279,2.0900735,21.011555,17.039753,1.2330904,0.2715685,0.32845349
2008_v3_09020959_ECG,2715,3015,862.80403,861,860,0.36493258,4.8709817,35.55363,2,19.103209,29.629992,0.066473988,347,0.97685021,5,0.6027955,14.324019,53.915683,187.67301,0.29,256.51551,5,-2.7316514,2.0634058,20.981911,17.01836,1.2328985,0.27001353,0.32636053
2008_v3_09020959_ECG,2720,3020,862.80692,861,860,0.36497128,4.8697002,35.543168,2,19.104222,29.631455,0.066473988,347,0.97446926,5,0.59857751,14.275335,54.032394,187.59735,0.29,256.50366,5,-2.7224771,2.0729927,20.982947,17.019357,1.2328872,0.28264368,0.33889314
2008_v3_09020959_ECG,2725,3025,862.80115,861,860,0.36502682,4.8694518,35.538251,2,19.105675,29.632138,0.066473988,347,0.97424948,5,0.62415192,14.346343,53.825861,187.73577,0.29,256.53213,5,-2.7247706,2.0583942,20.98343,17.022024,1.2327224,0.28366345,0.34128168
2008_v3_09020959_ECG,2730,3030,862.80925,861,860,0.36605626,4.8617351,35.433134,2,19.132597,29.674905,0.066666667,346,0.97424948,5,0.65047561,14.673751,53.582203,188.35563,0.28,257.26206,5,-2.7806604,2.0434783,21.013804,17.045016,1.2328415,0.2862512,0.34321203
2008_v3_09020959_ECG,2735,3035,862.56358,861,860,0.33073942,5.1375654,40.278163,2,18.186243,28.125907,0.060869565,346,0.97450589,5,1.0700075,13.568218,48.759969,169.90838,0.29,233.30657,5,-2.7663551,2.0377698,19.916904,16.272547,1.2239574,0.27553153,0.33028819
2008_v3_09020959_ECG,2740,3040,862.78963,861,860,0.37017238,4.8688893,35.360076,2,19.239864,29.219322,0.063583815,347,0.97472567,5,0.58834245,15.167993,54.233019,190.98405,0.28,260.9734,5,-2.7227273,2.0413669,20.689787,17.671374,1.1708081,0.27761071,0.33215914
2008_v3_09020959_ECG,2745,3045,862.79827,861,860,0.37014994,4.8679908,35.355598,2,19.239281,29.844781,0.066473988,347,0.97446926,5,0.56026401,14.841201,54.284682,192.037,0.28,261.72315,5,-2.7522936,2.0503597,21.13401,17.136321,1.2332875,0.28351792,0.3479864
2008_v3_09020959_ECG,2750,3050,862.79827,861,860,0.3701615,4.8677515,35.353392,2,19.239582,29.84483,0.066473988,347,0.97468904,5,0.56518522,14.663101,54.391906,191.97187,0.28,261.59206,5,-2.8301887,2.0230496,21.134044,17.136954,1.2332439,0.28666496,0.35087818
2008_v3_09020959_ECG,2755,3055,862.80636,861,860,0.37122906,4.8595799,35.244357,2,19.267305,29.888634,0.066666667,346,0.97468904,5,0.56906412,14.64457,54.693232,192.42155,0.28,262.32841,5,-2.7916667,2.0615942,21.16515,17.160844,1.2333397,0.28888585,0.35261246
2008_v3_09020959_ECG,2760,3060,862.80636,861,860,0.37121747,4.8598139,35.246557,2,19.267005,29.889119,0.066666667,346,0.97468904,5,0.61335643,14.619197,54.68117,192.42443,0.28,262.33815,5,-2.8317757,2.0485612,21.165495,17.159742,1.233439,0.2880935,0.35194905
2008_v3_09020959_ECG,2765,3065,862.80115,861,860,0.37015977,4.8673481,35.3508,2,19.239537,29.846089,0.066473988,347,0.97446926,5,0.67424566,14.560959,54.444783,191.92021,0.28,261.60019,5,-2.5,2.0446429,21.134936,17.135753,1.2333824,0.28935011,0.35321276
2008_v3_09020959_ECG,2770,3070,862.79539,861,860,0.37016322,4.8681724,35.355984,2,19.239626,29.844878,0.066473988,347,0.97399307,5,0.74478612,14.539407,54.401211,191.93345,0.28,261.61886,5,-3.0471698,2.0196429,21.134078,17.137012,1.2332417,0.28503953,0.35026634
2008_v3_09020959_ECG,2775,3075,862.79827,861,860,0.37020196,4.8669253,35.345673,2,19.240633,29.847493,0.066473988,347,0.97399307,5,0.83299054,14.495585,54.40977,191.88646,0.28,261.62481,5,-3.1485849,2.1767857,21.13593,17.136989,1.2333514,0.28865034,0.35242366
2008_v3_09020959_ECG,2780,3080,862.80925,861,860,0.37123307,4.8590268,35.240685,2,19.26741,29.889749,0.066666667,346,0.97421285,5,0.94498146,14.327976,54.708346,192.4888,0.28,262.47011,5,-3.05,1.9442446,21.16594,17.160103,1.233439,0.29261242,0.35575547
2008_v3_09020959_ECG,2785,3085,862.80058,861,860,0.37127316,4.8595696,35.241839,2,19.26845,29.889992,0.066666667,346,0.97468904,5,1.0605626,14.13668,54.697992,192.62757,0.28,262.5228,5,-2.747619,1.9514388,21.166113,17.162226,1.2332965,0.29423199,0.35658285
2008_v3_09020959_ECG,2790,3090,862.80115,861,860,0.37020023,4.866495,35.34309,2,19.240588,29.565886,0.063583815,347,0.97494545,5,1.2139859,13.82242,54.3201,192.04829,0.28,261.40479,5,-2.7079439,1.9637681,20.935891,17.380705,1.2045478,0.28471607,0.33761059
2008_v3_09020959_ECG,2795,3095,862.7464,861,860,0.31310891,6.0629559,45.723336,2,17.694884,26.958006,0.052023121,347,0.97494545,5,1.2440801,13.023087,47.142045,168.37835,0.28,229.78757,5,-2.7380952,1.9514388,19.089794,16.180161,1.1798272,0.28531904,0.33831625
2008_v3_09020959_ECG,2800,3100,862.98559,861,860,0.33317609,6.0966142,43.305299,2,18.253112,26.97494,0.046242775,347,0.97424948,5,0.88657683,14.635383,52.642024,183.53341,0.29,251.69739,5,-2.7190476,1.925,19.100311,17.364627,1.0999552,0.28707667,0.34344826
2008_v3_09020959_ECG,2805,3105,863.03468,861,860,0.32437561,6.3471923,45.62759,2,18.01043,26.792493,0.043478261,346,0.97234472,5,1.1482667,14.742185,54.478225,178.55281,0.31,248.92148,5,-2.7718447,1.9214286,18.972029,16.994509,1.1163623,0.29388687,0.36088033
2008_v3_09020959_ECG,2810,3110,862.82081,861,860,0.3089707,6.6565882,49.751363,2,17.577562,26.497963,0.04057971,346,0.97234472,5,0.75808002,14.142802,50.959016,170.9425,0.3,236.8024,5,-2.7428571,1.925,18.764103,16.304902,1.1508259,0.2963513,0.36452198
2008_v3_09020959_ECG,2815,3115,862.81844,861,860,0.3080681,6.6669259,49.901866,2,17.551869,26.459206,0.040462428,347,0.97212494,5,0.88180211,13.956342,50.896743,170.42291,0.3,236.15779,5,-2.6845794,1.9352518,18.736579,16.28118,1.1508121,0.29338037,0.36234775
2008_v3_09020959_ECG,2820,3120,862.8098,861,860,0.30808511,6.6678379,49.909517,2,17.552353,26.458551,0.040462428,347,0.97164875,5,1.0421483,13.95115,50.804815,170.40969,0.3,236.2078,5,-2.6962617,1.9232143,18.736116,16.282757,1.1506722,0.28973258,0.35980273
2008_v3_09020959_ECG,2825,3125,862.81844,861,860,0.3080392,6.6678902,49.911224,2,17.551045,26.457622,0.040462428,347,0.97117256,5,1.2194125,13.853751,50.685395,170.41354,0.3,236.1721,5,-2.5353774,1.8875,18.735458,16.280695,1.1507775,0.28939244,0.35985137
2008_v3_09020959_ECG,2830,3130,862.81503,861,860,0.30897438,6.6574565,49.758945,2,17.577667,26.496869,0.04057971,346,0.96897475,5,1.409889,13.711495,50.846595,170.92743,0.3,236.89541,5,-2.9238095,1.9131206,18.763328,16.306019,1.1506995,0.29379165,0.36282163
2008_v3_09020959_ECG,2835,3135,862.82081,861,860,0.3089649,6.656775,49.753231,2,17.577397,26.497744,0.04057971,346,0.96945094,5,1.6130538,13.445997,50.962095,170.8668,0.3,236.88795,5,-2.5600962,1.7288732,18.763947,16.304726,1.1508288,0.29588951,0.36408669
2008_v3_09020959_ECG,2840,3140,862.8098,861,860,0.30805042,6.6690085,49.920739,2,17.551365,26.457404,0.040462428,347,0.96970735,5,1.7997444,13.227052,50.844376,170.43772,0.3,236.30889,5,-2.5728155,1.7083333,18.735303,16.281562,1.1507068,0.29200495,0.36182762
2008_v3_09020959_ECG,2845,3145,862.80403,861,860,0.30804819,6.6700664,49.930236,2,17.551302,26.456148,0.040462428,347,0.96897475,5,2.0286896,13.09261,50.790042,170.44139,0.3,236.35273,5,-2.1952381,1.4615385,18.734413,16.282449,1.1505893,0.28669266,0.35804651
2008_v3_09020959_ECG,2850,3150,862.80403,861,860,0.30804819,6.6700664,49.930236,2,17.551302,26.456421,0.040462428,347,0.9602394,5,2.2797885,13.029745,50.740927,170.3359,0.3,236.38636,5,-2.1768868,1.4788732,18.734607,16.282226,1.1506171,0.28727155,0.35804456
2008_v3_09020959_ECG,2855,3155,862.81792,861,860,0.30938414,6.6434474,49.623383,2,17.589319,26.509555,0.04057971,346,0.94839485,5,2.5150939,13.06518,50.73568,170.68616,0.3,237.00211,5,-1.4690476,1.2200704,18.772303,16.320812,1.1502064,0.28235947,0.33929925
2008_v3_09020959_ECG,2860,3160,862.57225,861,860,0.28840201,7.0297022,55.497314,2,16.982403,25.63252,0.034782609,346,0.93748025,5,1.6285825,13.305451,47.318122,156.42008,0.3,218.67223,5,-1.4622642,1.2287234,18.151254,15.72692,1.1541519,0.28489466,0.35659919
2008_v3_09020959_ECG,2865,3165,862.23631,861,860,0.37475902,3.9148629,41.43566,2,19.358694,29.135968,0.046242775,347,0.92977589,5,2.5001717,16.703612,58.138863,190.64819,0.3,267.99083,5,-1.4575472,1.2269504,20.631938,17.995588,1.1464998,0.28940955,0.35482322
2008_v3_09020959_ECG,2870,3170,858.78161,861,860,1.0729608,-5.300644,56.778662,2,32.756081,32.542192,0.054755043,348,0.9178593,5,36.700582,271.7435,370.34944,312.6948,1.18,991.48833,5,-1.4551887,1.2048611,23.033646,40.1917,0.5730946,0.074157276,0.1490692
2008_v3_09020959_ECG,2875,3175,857.24425,861,860,1.2118278,-4.6160069,44.668096,2,34.811317,36.001681,0.057636888,348,0.90464983,5,73.180694,502.27622,296.90652,308.25293,0.96,1180.6164,5,-1.4693396,1.1965517,25.492732,42.116222,0.60529485,0.049486523,0.13010421
2008_v3_09020959_ECG,2880,3180,854.33714,861,860,1.6094562,-3.7147253,27.50252,3,40.118028,34.999877,0.054441261,350,0.89311319,5,175.70192,955.15768,311.61101,305.78735,1.02,1748.258,5,-1.4977064,1.2174658,24.776607,51.039516,0.48543971,0.037475768,0.11026244
2008_v3_09020959_ECG,2885,3185,850.71143,860.5,860,2.1019308,-3.5431798,19.676601,3,45.846819,34.789914,0.054441261,350,0.88137888,5,333.41544,1388.9787,300.93216,499.50323,0.6,2522.8295,5,-1.5113636,1.2706897,24.634301,59.975102,0.41074212,0.038244066,0.11022719
2008_v3_09020959_ECG,2890,3190,847.87143,860,860,2.5821238,-3.1761979,15.380873,3,50.814602,37.440344,0.071633238,350,0.87168303,5,512.73783,1714.8688,308.7863,562.51983,0.55,3098.9128,5,-2.4642857,1.4493007,26.509617,66.79437,0.396884,0.039825502,0.10695254
2008_v3_09020959_ECG,2895,3195,843.58239,860,860,3.3079419,-2.7305,11.178892,3,57.51471,38.578259,0.07977208,352,0.86035755,5,848.10785,2281.8689,465.38,525.83566,0.89,4121.1924,5,-2.6261261,1.1153846,27.315116,76.614413,0.35652711,0.042092982,0.12063376
2008_v3_09020959_ECG,2900,3200,839.65722,860,860,3.9467827,-2.3974454,8.6592737,3,62.823425,38.542995,0.079545455,353,0.85397459,5,1213.6479,2888.0637,491.98003,503.73243,0.98,5097.424,5,-2.9933628,1.1678571,27.289903,84.550734,0.32276364,0.042552053,0.13089381
2008_v3_09020959_ECG,2905,3205,835.31461,860,860,4.6236078,-2.1115383,6.8541667,3,67.997116,38.647413,0.081690141,356,0.85290246,5,1677.5183,3527.8637,390.90294,501.04737,0.78,6097.3323,5,-3.3241525,1.1178571,27.363569,92.187042,0.29682663,0.042570482,0.14023863
2008_v3_09020959_ECG,2910,3210,831.47059,860,860,5.1824465,-1.8941683,5.6959083,4,71.989211,38.592986,0.081460674,357,0.85061675,5,2123.7925,3953.7126,341.30683,509.18818,0.67,6928.0001,5,-3.8520833,1.2318841,27.324846,98.072655,0.2786184,0.044033077,0.13902921
2008_v3_09020959_ECG,2915,3215,827.18384,860,860,5.767022,-1.6875484,4.7380267,4,75.940911,38.487537,0.081005587,359,0.84430514,5,2657.9179,4265.2221,378.98602,482.8694,0.78,7784.9954,5,-3.9552846,1.0797101,27.250296,103.88198,0.26231977,0.035588335,0.12365843
2008_v3_09020959_ECG,2920,3220,,,,,,,,,,,,,2,,,,,,,2,,,,,,,
2008_v3_09020959_ECG,2925,3225,,,,,,,,,,,,,2,,,,,,,2,,,,,,,
2008_v3_09020959_ECG,2930,3230,,,,,,,,,,,,,2,,,,,,,2,,,,,,,
2008_v3_09020959_ECG,2935,3235,,,,,,,,,,,,,2,,,,,,,2,,,,,,,
2008_v3_09020959_ECG,2940,3240,,,,,,,,,,,,,2,,,,,,,2,,,,,,,
2008_v3_09020959_ECG,2945,3245,,,,,,,,,,,,,2,,,,,,,2,,,,,,,
2008_v3_09020959_ECG,2950,3250,,,,,,,,,,,,,2,,,,,,,2,,,,,,,
2008_v3_09020959_ECG,2955,3255,,,,,,,,,,,,,2,,,,,,,2,,,,,,,
2008_v3_09020959_ECG,2960,3260,,,,,,,,,,,,,2,,,,,,,2,,,,,,,
2008_v3_09020959_ECG,2965,3265,,,,,,,,,,,,,2,,,,,,,2,,,,,,,
2008_v3_09020959_ECG,2970,3270,,,,,,,,,,,,,2,,,,,,,2,,,,,,,
2008_v3_09020959_ECG,2975,3275,,,,,,,,,,,,,2,,,,,,,2,,,,,,,
