patID,t_start,t_end,NNmean,NNmedian,NNmode,NNvariance,NNskew,NNkurt,NNiqr,SDNN,RMSSD,pnn50,btsdet,avgsqi,tdflag,ulf,vlf,lf,hf,lfhf,ttlpwr,fdflag,ac,dc,SD1,SD2,SD1SD2,SampEn,ApEn
2009_v1_06090850_ECG,0,300,955.15016,974,1019,3.97607033,-0.953283736,2.89673312,79.25,63.0560888,20.8928125,0.0288461538,313,0.969012364,5,694.981717,3366.8871,266.069964,119.265013,2.23,4447.20379,5,-7.07773109,5.69140625,14.794716,87.9389392,0.168238508,1.1403174,0.968333439
2009_v1_06090850_ECG,5,305,952.603175,973,1019,4.24406814,-0.887085802,2.68491556,84.75,65.1465129,20.9401635,0.0286624204,315,0.967358901,5,883.409148,3507.695,213.072391,150.831018,1.41,4755.00756,5,-6.92584746,5.8721374,14.8269095,90.9301877,0.163058164,1.13874251,0.964478758
2009_v1_06090850_ECG,10,310,950.28481,973,1019,4.5405091,-0.832611893,2.48875292,89.5,67.3832999,21.3194896,0.0285714286,316,0.967393089,5,1098.18683,3609.78533,249.616856,148.269914,1.68,5105.85893,5,-6.90495868,5.94767442,15.0961355,94.0910458,0.160441787,1.06533539,0.945758325
2009_v1_06090850_ECG,15,315,946.876972,973,1019,5.13519684,-0.838083671,2.46747667,106,71.6602878,21.2096228,0.0284810127,317,0.967393089,5,1478.83149,3796.73711,412.432205,165.75095,2.49,5853.75175,5,-6.89516129,5.76968504,15.0160747,100.224304,0.149824684,1.04463501,0.917265646
2009_v1_06090850_ECG,20,320,943.619497,972.5,1019,5.69411028,-0.827072551,2.4128108,122,75.4593287,21.1956486,0.0283911672,318,0.967393089,5,1872.23006,4096.46014,451.579641,148.377974,3.04,6568.64782,5,-6.87096774,5.87304688,15.0062483,105.655256,0.142030306,0.969546006,0.874894688
2009_v1_06090850_ECG,25,325,939.74375,971.5,1019,6.23812222,-0.773298131,2.26255569,131,78.9817841,21.0629747,0.0282131661,320,0.967649499,5,2340.59666,4431.59538,328.647397,145.462394,2.26,7246.30183,5,-6.83070866,5.8996063,14.911455,110.697303,0.134704772,0.96793924,0.872738352
2009_v1_06090850_ECG,30,330,936.925,970.5,1019,6.61640815,-0.712378858,2.10186013,140.5,81.3413065,20.9207341,0.0282131661,320,0.967683687,5,2730.69843,4611.60352,239.360231,136.242584,1.76,7717.90476,5,-6.99418605,6.014,14.8147376,114.076027,0.12986723,0.882633037,0.825586902
2009_v1_06090850_ECG,35,335,935.17134,970,1019,6.81943618,-0.6615247,1.97791877,146.25,82.5798775,20.8968449,0.028125,321,0.967239243,5,3030.62345,4603.11381,208.736023,124.005847,1.68,7966.47912,5,-7.02692308,5.852,14.7980725,115.844246,0.127741109,0.88146091,0.827454878
2009_v1_06090850_ECG,40,340,933.416149,970,1019,6.99370167,-0.608241601,1.86747939,154,83.6283545,20.9094622,0.0280373832,322,0.967239243,5,3311.30672,4505.49421,232.31624,127.017687,1.83,8176.13485,5,-7.16098485,5.89112903,14.8064246,117.337859,0.126186251,0.875405215,0.819880702
2009_v1_06090850_ECG,45,345,931.785714,970,1019,7.11174522,-0.553163621,1.77925279,157,84.331164,20.7856588,0.0280373832,322,0.967239243,5,3532.57096,4429.12611,233.163519,121.792575,1.91,8316.65317,5,-7.07945736,5.85515873,14.7195158,118.350438,0.124372296,0.877451636,0.825927801
2009_v1_06090850_ECG,50,350,930.549689,969.5,1019,7.15115173,-0.510451695,1.73204232,157,84.5644827,20.8154627,0.0280373832,322,0.967239243,5,3631.61514,4388.44087,216.381949,119.512062,1.81,8355.95002,5,-6.95275591,6.00585938,14.7406248,118.680316,0.124204462,0.869364394,0.822061991
2009_v1_06090850_ECG,55,355,928.724458,964,1019,7.15941763,-0.453322515,1.68475616,156.25,84.6133419,20.875258,0.0279503106,323,0.967239243,5,3726.29858,4288.77741,207.72481,123.998364,1.68,8346.79916,5,-6.66865079,6.08653846,14.78116,118.744905,0.124478267,0.868650125,0.82558451
2009_v1_06090850_ECG,60,360,926.669753,958.5,1019,7.12831475,-0.397077585,1.65212898,157,84.4293477,20.9524007,0.0278637771,324,0.965466751,5,3780.84095,4175.77558,211.656174,124.533284,1.7,8292.80598,5,-6.736,6.16856061,14.8368202,118.475729,0.125230884,0.883965401,0.832516117
2009_v1_06090850_ECG,65,365,924.550769,957,1019,7.08979757,-0.341278102,1.62510285,157,84.2009357,20.951443,0.0277777778,325,0.958306292,5,3824.56504,4037.93691,236.501887,127.459634,1.86,8226.46348,5,-6.62304688,6.01717557,14.8345762,118.150457,0.125556656,0.874446793,0.835203507
2009_v1_06090850_ECG,70,370,921.48773,951.5,1019,7.22289062,-0.273252461,1.56456414,159,84.987591,20.8386475,0.0276923077,326,0.950500024,5,4045.39343,3870.8419,322.528298,138.888963,2.32,8377.6526,5,-6.36153846,5.90192308,14.7527154,119.281761,0.123679557,0.866357853,0.831883739
2009_v1_06090850_ECG,75,375,919.073394,944,1019,7.34420319,-0.211349318,1.51145372,164.75,85.6983266,20.7680737,0.027607362,327,0.941665266,5,4248.09561,3847.46261,290.930169,129.894801,2.24,8516.3832,5,-6.38653846,5.63461538,14.7057359,120.30024,0.12224195,0.861532731,0.833424206
2009_v1_06090850_ECG,80,380,917.039755,937,1019,7.53890946,-0.167462194,1.45891653,166,86.8268936,20.8778951,0.027607362,327,0.933895228,5,4536.33466,3845.27739,248.762171,124.281181,2,8754.6554,5,-6.33522727,5.55078125,14.7848361,121.898431,0.121288157,0.803262346,0.798953276
2009_v1_06090850_ECG,85,385,917.107692,938,1019,7.59984948,-0.172032968,1.44887584,167.25,87.1771156,20.9647706,0.0277777778,325,0.925889039,5,4800.57905,3701.02109,226.245169,148.48425,1.52,8876.32955,5,-6.29734848,5.80905512,14.8472537,122.389779,0.121311222,0.82112216,0.809027157
2009_v1_06090850_ECG,90,390,916.717791,937.5,1019,7.60906473,-0.161612242,1.44127056,167,87.2299532,21.1052308,0.0276923077,326,0.920323036,5,4998.40583,3517.25968,240.467297,152.575565,1.58,8908.70837,5,-6.37781955,5.79527559,14.9464915,122.452978,0.122059028,0.821680572,0.806551509
2009_v1_06090850_ECG,95,395,916.765432,946.5,1019,7.78796958,-0.1469344,1.43026309,169.5,88.2494735,25.6881754,0.0340557276,324,0.919393225,5,5099.29538,3506.67893,290.423308,229.414743,1.27,9125.81237,5,-6.5075188,5.678,18.1877961,123.471224,0.147303926,0.824680794,0.80064491
2009_v1_06090850_ECG,100,400,916.878505,944,1019,8.00412582,-0.0973866832,1.49705505,171,89.4657801,30.2593477,0.0375,321,0.918658182,5,5019.25089,3632.09304,307.58126,338.413866,0.91,9297.33906,5,-6.51315789,5.63114754,21.4282574,124.695956,0.171844044,0.821444336,0.795004411
2009_v1_06090850_ECG,105,405,914.946875,913.5,1019,7.92445171,-0.051892935,1.50894236,170,89.0193895,30.2117916,0.0376175549,320,0.917320964,5,4894.70164,3622.37178,316.440078,366.901065,0.86,9200.41456,5,-6.44924812,5.7892562,21.3955081,124.061016,0.172459559,0.831367321,0.806493499
2009_v1_06090850_ECG,110,410,914.62776,905,1019,8.0992534,0.0145312881,1.62804305,170,89.9958521,36.5446666,0.0443037975,317,0.917320964,5,4650.83193,3835.52955,344.575259,507.948949,0.68,9338.88569,5,-6.47932331,5.62288136,25.8819351,124.613933,0.20769696,0.819639965,0.786097122
2009_v1_06090850_ECG,115,415,913.399361,891,1019,8.11425346,0.0462795805,1.6361542,170,90.0791511,36.8599219,0.0480769231,313,0.917320964,5,4556.07076,3926.40235,339.277348,524.028363,0.65,9345.77882,5,-6.32884615,5.5534188,26.1045763,124.687842,0.209359436,0.826907845,0.784638542
2009_v1_06090850_ECG,120,420,912.370607,891,1019,8.01415067,0.0681603338,1.66591788,169.25,89.5217888,36.9298972,0.0480769231,313,0.917320964,5,4300.78402,3995.97676,345.784699,536.707794,0.64,9179.25327,5,-6.45898438,5.47268908,26.1551124,123.871754,0.211146702,0.832974699,0.793202632
2009_v1_06090850_ECG,125,425,910.935275,888,1019,7.96972956,0.0971617583,1.68745907,169,89.2733418,37.1183173,0.0487012987,309,0.917320964,5,4122.34074,4088.52544,358.521215,543.359927,0.66,9112.74732,5,-6.512,5.41525424,26.2888746,123.484227,0.212892572,0.83384215,0.793632473
2009_v1_06090850_ECG,130,430,911.288026,888,1019,8.10947846,0.133163978,1.75672107,166.75,90.0526427,39.156612,0.0584415584,309,0.917320964,5,3712.96039,4329.86606,526.871113,568.456933,0.93,9138.15449,5,-6.47357724,5.44791667,27.7324963,124.297488,0.223113892,0.843193908,0.798902063
2009_v1_06090850_ECG,135,435,910.961165,888,1019,8.10497251,0.152946814,1.78972922,166,90.0276208,40.4187898,0.0649350649,309,0.917320964,5,3365.4765,4557.51712,523.904838,583.982839,0.9,9030.88129,5,-6.26859504,5.45286885,28.6266702,124.058288,0.230751776,0.847427722,0.792429948
2009_v1_06090850_ECG,140,440,911.394822,888,1019,8.20483712,0.159678973,1.78586661,166,90.5805559,40.3882135,0.0649350649,309,0.917320964,5,3026.22066,4931.79307,484.70379,603.16877,0.8,9045.88629,5,-6.27868852,5.66666667,28.6052309,124.865588,0.229088185,0.838208761,0.783927777
2009_v1_06090850_ECG,145,445,911.792208,887,1019,8.39706417,0.192496578,1.82021192,166,91.6354963,40.3671666,0.0651465798,308,0.917320964,5,2766.38659,5289.45495,492.995803,611.870951,0.81,9160.70829,5,-6.22291667,5.25208333,28.5893527,126.399277,0.226182882,0.837953595,0.779611854
2009_v1_06090850_ECG,150,450,911.879085,886,1019,8.5768214,0.226541794,1.85364939,169,92.61113,40.7295357,0.0721311475,306,0.917320964,5,2604.74099,5466.5386,521.08384,693.189997,0.75,9285.55343,5,-5.53361345,5.09533898,28.8474561,127.755497,0.225802073,0.841242039,0.776510353
2009_v1_06090850_ECG,155,455,911.964052,886,1019,8.59958231,0.22855819,1.85373363,169,92.7339329,40.874859,0.0721311475,306,0.917320964,5,2429.14325,5595.01664,541.387802,693.447209,0.78,9258.9949,5,-6.51652893,5.42025862,28.9503852,127.91028,0.22633353,0.857886693,0.786038217
2009_v1_06090850_ECG,160,460,911.607843,886,1019,8.51019981,0.222758237,1.85825521,166,92.2507442,39.5999255,0.0557377049,306,0.917320964,5,2283.56558,5685.23077,510.079921,692.463749,0.74,9171.34002,5,-6.07708333,5.52586207,28.0472313,127.411744,0.220130661,0.863332481,0.80174362
2009_v1_06090850_ECG,165,465,911.679739,886,1019,8.51974628,0.221301197,1.85466492,166,92.3024717,39.5476471,0.0557377049,306,0.917320964,5,2205.36145,5785.39373,479.090952,688.850658,0.7,9158.69679,5,-6.55578512,5.56086957,28.0103541,127.494755,0.21969809,0.854038758,0.791149461
2009_v1_06090850_ECG,170,470,911.908497,886,1019,8.54104734,0.215015085,1.84470462,166,92.4177869,39.3661251,0.0524590164,306,0.917320964,5,2187.56397,5831.34475,470.289579,683.021968,0.69,9172.22027,5,-6.37916667,6.00217391,27.881734,127.689873,0.218355093,0.84525176,0.788645463
2009_v1_06090850_ECG,175,475,911.098361,886,1019,8.49324029,0.235714935,1.8719183,166.25,92.1587776,39.3825285,0.0526315789,305,0.917320964,5,2096.97546,5861.07483,476.780245,674.648154,0.71,9109.47869,5,-6.35860656,6.03318584,27.893274,127.312395,0.219093153,0.835782329,0.779999208
2009_v1_06090850_ECG,180,480,910.760656,886,1019,8.46317608,0.244920984,1.88614924,165.5,91.9955221,39.490047,0.0526315789,305,0.917320964,5,2049.70417,5797.29129,525.156805,692.164162,0.76,9064.31643,5,-6.51239669,6.125,27.9697129,127.059228,0.2201313,0.844696138,0.79013574
2009_v1_06090850_ECG,185,485,910.681967,886,1019,8.44855313,0.24551368,1.89000542,163.75,91.9160113,39.4980429,0.0526315789,305,0.91986729,5,2043.96284,5731.62845,579.60476,685.831879,0.85,9041.02793,5,-7.09146341,6.28348214,27.9753723,126.942841,0.220377708,0.846318129,0.788947429
2009_v1_06090850_ECG,190,490,910.57377,886,1019,8.42514668,0.245312017,1.89448721,162.5,91.7885978,39.3080781,0.0493421053,305,0.924439185,5,2063.52546,5733.39528,542.513778,682.848281,0.79,9022.2828,5,-7.23770492,6.02876106,27.8408336,126.787938,0.219585821,0.837620251,0.785490919
2009_v1_06090850_ECG,195,495,911,886,1007,8.49213158,0.238911532,1.87257222,167,92.1527622,39.2753438,0.0493421053,305,0.928736804,5,2155.71727,5747.97331,501.268607,686.238693,0.73,9091.19789,5,-7.27254098,6.31696429,27.8175259,127.320259,0.218484678,0.811149572,0.759517923
2009_v1_06090850_ECG,200,500,911.681967,886,1007,8.59802681,0.229181992,1.84120354,170.25,92.7255456,39.3806491,0.0493421053,305,0.933951946,5,2283.89821,5719.95288,500.762194,694.714453,0.72,9199.32774,5,-7.19,6.29545455,27.8916752,128.133165,0.217677251,0.815453117,0.769457438
2009_v1_06090850_ECG,205,505,912.319079,884.5,1007,8.73287145,0.21958625,1.80204548,171,93.4498339,39.4477136,0.0495049505,304,0.93551147,5,2437.81862,5683.18438,539.681137,682.535852,0.79,9343.21999,5,-7.53543307,6.1712963,27.9394762,129.170928,0.216298487,0.764002266,0.741685345
2009_v1_06090850_ECG,210,510,913.032895,884.5,1007,8.8478339,0.210577388,1.77207697,173,94.0629252,39.4388443,0.0495049505,304,0.93551147,5,2623.97299,5608.23312,558.354034,680.208142,0.82,9470.76829,5,-7.28174603,6.43807339,27.9331942,130.059234,0.214772863,0.760068543,0.731764625
2009_v1_06090850_ECG,215,515,913.322368,884.5,1002,8.89695844,0.207344465,1.75983125,173.5,94.3236897,39.3824859,0.0495049505,304,0.93551147,5,2814.68018,5505.0221,530.077635,683.045113,0.78,9532.82502,5,-7.424,6.46136364,27.8936822,130.444852,0.213835056,0.763794546,0.732071737
2009_v1_06090850_ECG,220,520,913.148026,884.5,1007,8.86801432,0.20942809,1.76717619,173.5,94.170135,39.4489268,0.0495049505,304,0.93551147,5,2977.35592,5335.73605,511.511276,690.368793,0.74,9514.97204,5,-7.35515873,6.6353211,27.9406719,130.212701,0.214577163,0.761135504,0.731932484
2009_v1_06090850_ECG,225,525,912.832237,884.5,1007,8.80872754,0.211518639,1.78011218,170.5,93.8548216,39.4668261,0.0495049505,304,0.93551147,5,3189.57112,5052.54896,537.162065,694.85793,0.77,9474.14008,5,-7.44,6.54545455,27.9533496,129.753864,0.215433658,0.768891499,0.735619131
2009_v1_06090850_ECG,230,530,912.264901,882.5,832,8.8273781,0.229370662,1.79553498,171,93.9541276,39.6888647,0.0531561462,302,0.93551147,5,3415.1736,4798.89054,550.825545,741.007749,0.74,9505.89744,5,-7.11585366,6.63863636,28.1106337,129.863576,0.216462803,0.757036519,0.731893949
2009_v1_06090850_ECG,235,535,912.445183,882,832,8.92885449,0.236505447,1.785828,171.25,94.492616,39.7282016,0.0533333333,301,0.93611753,5,3748.24882,4539.95917,617.242113,736.139927,0.84,9641.59003,5,-6.77272727,6.93918919,28.1388827,130.636566,0.215398212,0.770382725,0.740009249
2009_v1_06090850_ECG,240,540,913.208609,882.5,832,9.0253085,0.229580031,1.76619686,172,95.0016237,39.6808698,0.0531561462,302,0.937026621,5,4123.50658,4332.95659,580.200246,741.766348,0.78,9778.42976,5,-6.575,6.94469027,28.105334,131.380011,0.213923974,0.779928223,0.7492901
2009_v1_06090850_ECG,245,545,913.205298,882.5,832,9.02278828,0.229063651,1.7658597,172,94.9883586,39.609053,0.049833887,302,0.937329652,5,4516.68172,4046.8852,524.217992,736.660335,0.71,9824.44525,5,-6.48760331,7.07300885,28.0544673,131.371699,0.213550311,0.778440877,0.749539641
2009_v1_06090850_ECG,250,550,912.983444,882.5,832,8.98326551,0.231187608,1.77495437,171,94.7800902,39.668686,0.049833887,302,0.937073241,5,4886.83468,3643.60867,558.174359,731.539079,0.76,9820.15679,5,-6.51229508,7.05803571,28.0967055,131.061459,0.214378091,0.795884204,0.756327758
2009_v1_06090850_ECG,255,555,912.433775,882.5,832,8.90164842,0.240732599,1.80061049,170,94.3485475,39.7386395,0.049833887,302,0.940147316,5,5224.36348,3196.70775,604.036539,736.305368,0.82,9761.41313,5,-6.592,6.95642202,28.1460731,130.42659,0.215800114,0.799976397,0.769521326
2009_v1_06090850_ECG,260,560,912.052805,883,832,8.79346078,0.244094929,1.82755158,168.5,93.7734546,39.619214,0.0496688742,303,0.941594609,5,5600.77598,2815.42598,528.176231,728.931038,0.72,9673.30923,5,-6.6045082,7.20132743,28.0614466,129.612796,0.216502132,0.792178561,0.764120421
2009_v1_06090850_ECG,265,565,913.589404,887,832,8.91341225,0.203573996,1.78082772,170,94.4108693,39.6150916,0.049833887,302,0.941594609,5,5798.29103,2745.75109,555.301252,735.156332,0.76,9834.4997,5,-6.64049587,7.30752212,28.0564077,130.536058,0.214932243,0.791071478,0.756191604
2009_v1_06090850_ECG,270,570,916.259136,900,832,8.87239262,0.139789141,1.77513558,169,94.1933789,39.7111235,0.05,301,0.941816831,5,5709.85202,2782.55399,576.984681,734.256124,0.79,9803.64681,5,-6.76239669,7.29017857,28.1240583,130.206845,0.215995236,0.80459691,0.767118009
2009_v1_06090850_ECG,275,575,919.136667,924,832,8.67245952,0.0900928643,1.80457042,165.5,93.126041,39.8952223,0.0501672241,300,0.942039053,5,5455.27726,2917.91124,460.221051,741.88939,0.62,9575.29894,5,-6.84504132,7.0045045,28.2545032,128.633596,0.21965104,0.877550055,0.804858467
2009_v1_06090850_ECG,280,580,922.294314,943,832,8.67619497,0.0256655048,1.80184728,166,93.1460948,40.0057043,0.0503355705,299,0.942039053,5,5377.81099,3025.96349,469.420465,731.001623,0.64,9604.19656,5,-6.62603306,7.14545455,28.3329389,128.645383,0.220240621,0.881721901,0.811928208
2009_v1_06090850_ECG,285,585,925.197987,950,832,8.78735798,-0.0408458237,1.78026977,169,93.7409088,40.1203996,0.0505050505,298,0.942039053,5,5402.37376,3071.30381,556.130196,731.133695,0.76,9760.94146,5,-6.54303279,7.1712963,28.4142923,129.488779,0.219434398,0.857983883,0.799611374
2009_v1_06090850_ECG,290,590,928.959596,960,832,8.83604566,-0.111969266,1.78913842,168,94.0002429,40.2650845,0.0506756757,297,0.941736023,5,5321.71615,3179.62478,596.870048,742.860581,0.8,9841.07156,5,-6.50210084,7.17045455,28.5144333,129.842283,0.219608225,0.876755322,0.803791222
2009_v1_06090850_ECG,295,595,932.79661,965,832,8.74218298,-0.175623408,1.82633958,163.75,93.4996416,40.3964621,0.0510204082,295,0.941432993,5,5114.10694,3389.96095,524.10771,725.154955,0.72,9753.33055,5,-6.39705882,7.36342593,28.6092989,129.096375,0.221611947,0.887111521,0.804896292
2009_v1_06090850_ECG,300,600,936.319728,970,832,8.76690766,-0.248073136,1.85675664,164,93.6317663,40.490845,0.0511945392,294,0.945138437,5,5011.46481,3589.31282,500.068815,718.708964,0.7,9819.5554,5,-6.60208333,7.43396226,28.6768105,129.272796,0.221831749,0.893062987,0.809006759
2009_v1_06090850_ECG,305,605,940.266212,975,832,8.73695629,-0.317856448,1.90613264,162.5,93.4716871,40.4643002,0.051369863,293,0.94704831,5,4849.56448,3731.4907,527.485266,701.823278,0.75,9810.36373,5,-7.00208333,7.5047619,28.6572172,129.04525,0.222071074,0.883933747,0.797981044
2009_v1_06090850_ECG,310,610,944.236301,978,986,8.62260033,-0.39316697,1.98414334,155.5,92.8579578,40.3805353,0.0515463918,292,0.947270532,5,4623.74227,3749.33902,636.234181,711.870568,0.89,9721.18604,5,-6.91528926,8.13349515,28.5978385,128.16928,0.22312553,0.956912671,0.835515452
2009_v1_06090850_ECG,315,615,949.782759,982,1047,8.17223292,-0.450220494,2.07219239,153,90.4004033,40.5632916,0.0519031142,290,0.947270532,5,4159.40039,3552.48026,726.071481,738.026613,0.98,9175.97875,5,-7.12184874,8.07038835,28.7238391,124.576912,0.230571128,0.945626659,0.830558166
2009_v1_06090850_ECG,320,620,954.522491,986,1047,7.57588925,-0.481532793,2.13612189,148.25,87.0395844,40.6755028,0.0520833333,289,0.947270532,5,3671.52185,3309.42832,740.986505,732.31725,1.01,8454.25393,5,-7.15546218,8.21078431,28.8060911,119.674507,0.240703654,0.953965905,0.834334345
2009_v1_06090850_ECG,325,625,959.365854,989,1047,6.8616454,-0.498950592,2.20656611,138.25,82.8350494,40.8007696,0.0524475524,287,0.947270532,5,3102.26814,3062.9292,686.817738,733.037636,0.94,7585.05271,5,-7.19166667,8.22,28.8958877,113.52673,0.254529375,1.04779209,0.892087677
2009_v1_06090850_ECG,330,630,963.534965,989.5,1047,6.32859351,-0.530543734,2.302586,131,79.5524576,40.9000064,0.0526315789,286,0.947492754,5,2680.27778,2923.24828,632.562749,727.710296,0.87,6963.79911,5,-7.16101695,8.25990099,28.9671501,108.711045,0.266460048,1.09859251,0.905211695
2009_v1_06090850_ECG,335,635,967.34386,993,1047,5.98512782,-0.598012174,2.47323248,117.25,77.3636079,41.0428323,0.0528169014,285,0.947937199,5,2362.98503,2822.99118,673.131545,722.519225,0.93,6581.62698,5,-7.34453782,8.18181818,29.069875,105.476054,0.275606394,1.12208185,0.912692616
2009_v1_06090850_ECG,340,640,970.742958,995.5,1000,5.62067928,-0.666900895,2.68818223,95,74.9711897,41.0564121,0.0530035336,284,0.947937199,5,2046.22657,2739.84512,686.12214,703.580119,0.98,6175.77395,5,-6.88347458,8.30555556,29.0803043,101.959278,0.285214889,1.07212627,0.891574045
2009_v1_06090850_ECG,345,645,973.533569,996,1000,5.32982422,-0.7436721,2.94490129,77,73.0056451,41.0785875,0.0531914894,283,0.947937199,5,1770.91558,2709.11886,672.671947,707.704427,0.95,5860.41081,5,-6.81567797,8.39285714,29.097153,99.0606084,0.293730812,1.13294023,0.901053133
2009_v1_06090850_ECG,350,650,975.607774,996,1000,5.1657215,-0.818148087,3.15845843,68.75,71.8729539,41.1903125,0.0567375887,283,0.947937199,5,1593.75757,2711.32425,675.617956,711.719066,0.95,5692.41884,5,-7.13347458,8.40306122,29.1772434,97.3659667,0.299665729,1.11792195,0.894168951
2009_v1_06090850_ECG,355,655,977.457447,996,1000,4.95864053,-0.88104883,3.41721379,64,70.4176152,41.2843624,0.0569395018,282,0.947937199,5,1356.5498,2733.58109,644.951937,722.733777,0.89,5457.8166,5,-7.22669492,8.52835052,29.2428649,95.1952516,0.307188272,1.11778671,0.887047405
2009_v1_06090850_ECG,360,660,979.362989,996,1000,4.74101063,-0.946956603,3.71272976,60.5,68.8549971,41.3249752,0.0571428571,281,0.94945328,5,1136.41682,2721.80059,661.876531,702.559554,0.94,5222.6535,5,-7.25211864,8.40364583,29.2733414,92.8713774,0.315203049,1.1068133,0.895528966
2009_v1_06090850_ECG,365,665,981.525,996.5,1000,4.49325385,-1.02409974,4.08808799,56.5,67.0317377,41.350066,0.0573476703,280,0.95661374,5,924.260714,2506.26266,769.443555,732.171637,1.05,4932.13857,5,-7.31779661,8.67368421,29.2881211,90.1593793,0.3248483,1.11508776,0.90251657
2009_v1_06090850_ECG,370,670,985.092857,996.5,1000,3.86996267,-1.01984643,4.53608353,52.5,62.209024,41.3965005,0.0573476703,280,0.964420008,5,620.575727,2041.56609,794.774119,738.741758,1.08,4195.6577,5,-7.2892562,8.65957447,29.3214612,82.9468339,0.353497051,1.24784573,0.974263814
2009_v1_06090850_ECG,375,675,988.283154,997,1000,3.31816774,-0.977237002,5.0321893,51.5,57.6035393,41.4672012,0.0575539568,279,0.973511176,5,385.731628,1586.93309,814.000021,736.607257,1.11,3523.27199,5,-6.78125,8.65526316,29.3713869,75.9845846,0.386544021,1.28221044,0.956827986
2009_v1_06090850_ECG,380,680,991.823741,997,1000,2.6596403,-0.717371585,5.07610129,51,51.5717006,41.4955959,0.0577617329,278,0.981537624,5,192.765335,1154.18658,678.369658,686.459477,0.99,2711.78105,5,-7.2231405,7.86170213,29.392005,66.7487127,0.440338155,1.42079118,0.976432875
2009_v1_06090850_ECG,385,685,993.577061,997,1000,2.35387084,-0.582256473,5.35394663,48.75,48.5167068,41.4465939,0.0575539568,279,0.989800224,5,118.578726,911.873278,752.601804,613.724642,1.23,2396.77845,5,-6.57627119,7.91326531,29.359085,62.0144,0.473423673,1.38646201,0.988207126
2009_v1_06090850_ECG,390,690,996.57554,997.5,1000,1.99871449,-0.390379966,5.85533307,47,44.7069848,41.44737,0.0613718412,278,0.995366226,5,47.864439,661.442168,632.096588,658.962283,0.96,2000.36548,5,-6.98728814,7.52040816,29.3583879,55.9956609,0.524297551,1.6021915,1.00461022
2009_v1_06090850_ECG,395,695,998.358423,998,1000,1.7067128,-0.00597856033,5.28862067,45.75,41.3123807,38.1141319,0.0503597122,279,0.996296037,5,24.2636258,626.388861,537.975993,463.840044,1.16,1652.46852,5,-6.88983051,7.43181818,26.9968366,51.8130911,0.521042773,1.59434361,1.02679415
2009_v1_06090850_ECG,400,700,998.634752,999,1000,1.55367751,-0.0572192976,5.13957591,45,39.4167161,34.0098897,0.0462633452,282,0.99703108,5,20.6726109,631.652625,479.992656,386.746333,1.24,1519.06422,5,-6.90042373,7.13970588,24.0881104,50.2704481,0.479170393,1.72804623,0.952984759
2009_v1_06090850_ECG,405,705,1000.4417,1000,1000,1.32609145,0.364307554,4.88801185,44,36.4155385,29.0721772,0.0425531915,283,0.998368298,5,13.2448578,607.312584,336.946424,290.797784,1.16,1248.30165,5,-6.93487395,7.03676471,20.588379,47.204889,0.436149295,1.7463359,0.980215984
2009_v1_06090850_ECG,410,710,999.84965,999,994,1.21522995,0.122129188,4.12299907,44,34.8601484,25.7987488,0.0350877193,286,0.998368298,5,15.2118378,598.884211,317.146795,237.092161,1.34,1168.335,5,-6.52083333,7.12019231,18.2725508,45.7883586,0.399065426,1.71445929,0.998290513
2009_v1_06090850_ECG,415,715,1000.88621,1000,994,1.18839185,0.159413842,3.98162015,46,34.4730598,25.6864242,0.0346020761,290,0.998065268,5,8.49261655,577.191636,309.02923,242.255463,1.28,1136.96895,5,-6.55284553,6.96190476,18.1898905,45.2317542,0.402148686,1.73018887,1.01983241
2009_v1_06090850_ECG,420,720,1002.44983,1001,994,1.11579001,0.267824203,3.85822456,44.5,33.4034431,25.6296405,0.0347222222,289,0.997762238,5,11.5116749,557.076328,274.646007,220.468545,1.25,1063.70255,5,-6.19214876,7.25,18.1533983,43.6123165,0.416244763,1.73621613,1.01623085
2009_v1_06090850_ECG,425,725,1003.08874,1001,994,1.10053319,0.243967681,3.86399219,45.25,33.1742851,22.9091416,0.0308219178,293,0.997762238,5,11.0840894,569.293007,254.061583,219.491021,1.16,1053.9297,5,-6.11788618,7.20601852,16.2243203,44.0208794,0.368559659,1.90603097,0.899707384
2009_v1_06090850_ECG,430,730,1002.82935,1002,994,1.02604612,0.0728215533,3.47376699,44.25,32.0319547,22.045563,0.0239726027,293,0.997762238,5,6.56930464,583.001013,183.896094,223.495567,0.82,996.961979,5,-6.06653226,6.97916667,15.6147377,42.523784,0.3672001,1.89890517,0.91851314
2009_v1_06090850_ECG,435,735,1002.46075,1001,1000,0.98195479,0.100634848,3.47226484,44,31.3361579,19.7808195,0.0205479452,293,0.997762238,5,8.51950684,579.487113,175.714235,195.52131,0.9,959.242165,5,-6.04878049,6.9266055,14.0107935,42.0429215,0.333249761,1.91994867,0.935764551
2009_v1_06090850_ECG,440,740,1002.03413,1001,1000,0.95450568,0.0970767573,3.59551547,41,30.8950753,19.8009789,0.0205479452,293,0.997762238,5,3.10393826,540.437387,196.856049,192.134089,1.02,932.531463,5,-5.86885246,7.03409091,14.0254263,41.3799321,0.338942709,1.90214784,0.937374522
2009_v1_06090850_ECG,445,745,1000.96939,1000,1000,0.874063906,-0.0408642733,3.48800614,40,29.5645718,19.5792779,0.0204778157,294,0.997762238,5,1.04428971,497.57958,187.141439,167.870397,1.11,853.635706,5,-6.02916667,7.09734513,13.8648198,39.4448296,0.351499041,1.91166183,0.968532202
2009_v1_06090850_ECG,450,750,1000.58446,1000,1000,0.821918266,-0.260965555,2.84721281,40,28.6691169,19.3650043,0.0169491525,296,0.997762238,5,1.95783587,480.68172,172.674117,149.898043,1.15,805.211715,5,-6.07644628,6.67763158,13.7161213,38.1536964,0.359496527,1.90663081,0.978672654
2009_v1_06090850_ECG,455,755,1000.71622,1000,1000,0.820075126,-0.288062822,2.833109,40.5,28.6369539,18.9912558,0.0169491525,296,0.997762238,5,3.77727321,486.108235,170.403378,144.184169,1.18,804.473056,5,-6.09552846,6.77927928,13.4516163,38.1995323,0.352140864,1.92978767,1.0036849
2009_v1_06090850_ECG,460,760,1001.19595,1001,1000,0.815514017,-0.328634168,2.87681731,40,28.5572061,18.9111213,0.0169491525,296,0.997762238,5,3.49095997,490.386017,162.897627,143.291273,1.14,800.065878,5,-6.25409836,6.66071429,13.3943449,38.1001255,0.351556451,1.95201081,1.02040027
2009_v1_06090850_ECG,465,765,1001.97635,1001.5,1000,0.845711303,-0.309559205,2.83883431,41.5,29.0811159,18.9125552,0.0169491525,296,0.997762238,5,7.56927916,505.102329,174.935671,141.501028,1.24,829.108306,5,-6.20731707,6.85810811,13.3947736,38.8844782,0.344476104,1.97281846,1.03002591
2009_v1_06090850_ECG,470,770,1003.04392,1004.5,1000,0.874313319,-0.327148646,2.81844628,42,29.5687896,18.9416589,0.0169491525,296,0.997459207,5,13.4628701,515.467515,186.500085,144.085242,1.29,859.515713,5,-6.19105691,6.78378378,13.4154208,39.6062258,0.33872,2.01190256,1.02889197
2009_v1_06090850_ECG,475,775,1003.85859,1005,1000,0.817027232,-0.274543274,2.78517142,40.25,28.5836882,18.9979551,0.0168918919,297,0.997156177,5,12.6847936,476.000418,186.341416,121.63875,1.53,796.665378,5,-6.32056452,6.8018018,13.4542469,38.1187317,0.352956311,2.01366351,1.04512399
2009_v1_06090850_ECG,480,780,1005.18581,1006,1000,0.803284001,-0.196570779,2.64517816,41.5,28.3422653,18.7744868,0.0169491525,296,0.997156177,5,22.5176527,472.634047,177.423442,113.37251,1.56,785.947651,5,-6.18548387,7.02045455,13.2971229,37.8120949,0.351663217,1.99615709,1.04623181
2009_v1_06090850_ECG,485,785,1006.35811,1007,1000,0.872420476,-0.0874114102,2.75883199,42.5,29.5367648,18.902874,0.0169491525,296,0.997156177,5,40.6951017,495.369461,204.806348,113.576545,1.8,854.447455,5,-6.19715447,6.9481982,13.3888819,39.5673956,0.338381683,1.9799294,1.01505267
2009_v1_06090850_ECG,490,790,1007.08446,1007,1000,0.892972503,-0.11681212,2.6960176,43,29.8826455,18.9631221,0.0169491525,296,0.997156177,5,52.9086011,509.341237,198.344349,116.035076,1.71,876.629263,5,-6.09221311,6.80580357,13.4317158,40.0691155,0.335213682,2.00325765,1.01490741
2009_v1_06090850_ECG,495,795,1007.35473,1008,1000,0.898616113,-0.13721346,2.67125843,44.5,29.9769263,19.1034649,0.0169491525,296,0.997156177,5,58.1059633,513.312654,193.459653,117.453167,1.65,882.331436,5,-5.81707317,6.78828829,13.5309992,40.1764146,0.336789615,2.00519751,1.01839765
2009_v1_06090850_ECG,500,800,1007.34122,1007.5,996,0.890761143,-0.13682225,2.71058693,43.5,29.8456218,18.8906757,0.0169491525,296,0.997156177,5,56.4616221,512.643399,191.940056,113.81029,1.69,874.855367,5,-5.80894309,6.45495495,13.3803743,40.0310863,0.334249594,1.99961366,1.0376968
2009_v1_06090850_ECG,505,805,1007.27703,1007,996,0.907387403,-0.133078238,2.65672716,44.5,30.1228718,19.3410953,0.0169491525,296,0.997156177,5,54.5706912,513.781069,199.930521,122.834698,1.63,891.11698,5,-5.976,6.49770642,13.6993272,40.3373678,0.33961877,1.98692528,1.02141269
2009_v1_06090850_ECG,510,810,1007.73898,1008,996,0.935969053,-0.123875896,2.59442164,46,30.5936113,19.292944,0.0170068027,295,0.997156177,5,69.5411137,504.534965,227.251894,118.772089,1.91,920.100062,5,-5.85080645,6.95642202,13.6652144,41.0511878,0.332882313,1.96362529,1.00372446
2009_v1_06090850_ECG,515,815,1008,1009,996,0.943040816,-0.14122947,2.5658787,46,30.7089696,19.3331867,0.0170068027,295,0.997156177,5,78.2706045,509.898528,221.981162,118.904797,1.87,929.055091,5,-5.72560976,6.94545455,13.6936139,41.2136697,0.33225903,1.96765756,1.00771454
2009_v1_06090850_ECG,520,820,1008.96271,1010,1000,0.962947584,-0.177418696,2.51703909,47,31.0313968,19.0720974,0.0170068027,295,0.997156177,5,95.9241771,518.032637,222.038664,114.831743,1.93,950.827221,5,-5.75413223,6.80357143,13.508797,41.7541324,0.323531977,1.98627243,1.01686629
2009_v1_06090850_ECG,525,825,1009.42373,1011,1000,0.971258619,-0.203647578,2.50108714,46.75,31.1650224,19.1355708,0.0170068027,295,0.997156177,5,102.044747,525.71665,216.839581,115.263279,1.88,959.864257,5,-5.89791667,6.68141593,13.553941,41.938144,0.323188862,2.00402847,1.01448998
2009_v1_06090850_ECG,530,830,1009.93939,1013,1000,0.975557125,-0.241190877,2.47419509,47.5,31.2339099,18.7178553,0.0135135135,297,0.996853147,5,120.143445,509.984159,223.946686,112.992125,1.98,967.066415,5,-5.89049587,6.4495614,13.2579365,42.1348,0.314655262,2.01900914,1.03080332
2009_v1_06090850_ECG,535,835,1010.05051,1013,1000,0.9873319,-0.218384372,2.48313731,47.5,31.4218379,18.8851436,0.0135135135,297,0.996550117,5,137.9498,492.180704,230.984631,119.510887,1.93,980.626022,5,-6.21900826,6.52391304,13.3763239,42.3761461,0.315656924,1.98367224,1.01394221
2009_v1_06090850_ECG,540,840,1010.47811,1013,1000,1.02835847,-0.138649143,2.57870826,47.5,32.0680288,19.2337155,0.0135135135,297,0.996550117,5,170.65953,492.126838,234.778127,126.734903,1.85,1024.2994,5,-5.68333333,6.60344828,13.6229692,43.2565793,0.314934038,1.99031871,1.00404249
2009_v1_06090850_ECG,545,845,1011.10774,1013,1000,1.05409646,-0.149986095,2.52587278,47.25,32.4668517,19.0724083,0.0135135135,297,0.996550117,5,194.891834,506.512437,223.828309,126.965612,1.76,1052.19819,5,-5.52916667,6.375,13.5082532,43.8830265,0.307824101,2.01817367,1.00357457
2009_v1_06090850_ECG,550,850,1012.13131,1016,1029,1.08120229,-0.178057519,2.49143842,48.25,32.8816407,18.9051687,0.0135135135,297,0.996806527,5,217.501889,511.587157,226.638333,125.708403,1.8,1081.43578,5,-5.57083333,5.92241379,13.3888016,44.5325115,0.300652292,2.02017167,1.00471189
2009_v1_06090850_ECG,555,855,1013.33784,1016.5,1029,1.07410243,-0.225073547,2.51917858,49,32.7735019,18.7938865,0.013559322,296,0.996806527,5,225.753377,504.940297,222.117498,123.038104,1.81,1075.84928,5,-5.58471074,5.9495614,13.3107746,44.3962626,0.299817458,2.03940015,1.0059988
2009_v1_06090850_ECG,560,860,1014.75593,1018,1029,1.05734839,-0.28678496,2.59592301,47.75,32.5168939,18.8788656,0.0136054422,295,0.997062937,5,232.263909,492.79684,204.30299,129.52144,1.58,1058.88518,5,-5.70833333,6.07017544,13.3705668,43.9991446,0.303882426,1.96686375,0.997749364
2009_v1_06090850_ECG,565,865,1015.67458,1020,1029,1.06436313,-0.331101506,2.60581542,49.75,32.6245786,18.8424365,0.0136054422,295,0.997062937,5,247.314657,480.928894,214.057905,125.030682,1.71,1067.33214,5,-5.89830508,6.14655172,13.3455227,44.165861,0.302168289,1.93908418,0.984204344
2009_v1_06090850_ECG,570,870,1016.84068,1021,1029,1.05005956,-0.386943258,2.67555259,50,32.4046226,18.7365371,0.0136054422,295,0.997062937,5,254.815574,447.071639,227.843915,123.285543,1.85,1053.01667,5,-5.94444444,6.35683761,13.2698871,43.8637575,0.302525088,1.92803435,0.997666024
2009_v1_06090850_ECG,575,875,1018.28475,1022,1029,0.988190753,-0.374420064,2.66334041,50,31.4355015,18.5746334,0.0136054422,295,0.997062937,5,251.519485,421.861733,191.837351,121.759581,1.58,986.97815,5,-6.1965812,6.33547009,13.1555315,42.4654388,0.309793844,1.89563686,1.01350964
2009_v1_06090850_ECG,580,880,1018.86735,1023,1029,0.98085265,-0.402632735,2.70733402,49,31.3185672,18.392386,0.0136518771,294,0.997062937,5,262.181677,420.987548,181.171598,116.717055,1.55,981.057878,5,-6.25215517,6.27777778,13.0274016,42.3319277,0.307744115,1.93041771,1.03183781
2009_v1_06090850_ECG,585,885,1019.43197,1024.5,1029,1.00263529,-0.411787419,2.66184812,50,31.6644168,18.292933,0.0136518771,294,0.997062937,5,287.34509,412.527446,189.032964,116.905921,1.62,1005.81142,5,-6.31521739,6.35042735,12.9571599,42.8647009,0.302280421,1.91994641,1.03274537
2009_v1_06090850_ECG,590,890,1019.70408,1024.5,1029,1.02049575,-0.394859256,2.63814331,50,31.9451992,18.3324439,0.0136518771,294,0.997062937,5,316.906921,402.535185,191.095305,116.967339,1.63,1027.50475,5,-6.08552632,6.35381356,12.9851731,43.2709693,0.300089721,1.92126674,1.02506589
2009_v1_06090850_ECG,595,895,1019.95593,1025,1029,1.02694703,-0.401973167,2.62185537,50.75,32.0460143,18.3806131,0.0136054422,295,0.997365967,5,338.583563,394.485351,183.346637,119.673553,1.53,1036.0891,5,-6.02826087,6.22669492,13.0191896,43.409616,0.299914876,1.89273007,1.0121458
2009_v1_06090850_ECG,600,900,1020.19388,1026.5,1029,1.04025921,-0.406127661,2.5891238,51,32.2530496,18.2640848,0.0136518771,294,0.997365967,5,366.045734,383.895483,185.743234,117.782717,1.58,1053.46717,5,-5.97008547,6.25652174,12.9366233,43.7397096,0.295763813,1.88794235,1.0160724
2009_v1_06090850_ECG,605,905,1019.71429,1024,1029,1.03263481,-0.378214493,2.58945784,51,32.1346357,18.2519343,0.0136518771,294,0.997365967,5,373.844691,365.864041,190.756258,116.609779,1.64,1047.07477,5,-5.94130435,6.28448276,12.9279436,43.5676244,0.29673281,1.90445528,1.02017046
2009_v1_06090850_ECG,610,910,1020.05102,1024.5,1029,1.06114073,-0.349782798,2.54739161,52,32.5751551,18.7045467,0.0170648464,294,0.997365967,5,406.791699,334.019669,216.476848,120.407041,1.8,1077.69526,5,-5.93043478,6.34267241,13.2486903,44.1220316,0.300273805,1.90539952,1.00384732
2009_v1_06090850_ECG,615,915,1020.2517,1024.5,1029,1.07247568,-0.347573701,2.52240059,53,32.7486745,18.7443734,0.0170648464,294,0.997062937,5,444.503814,315.401035,212.511248,121.200824,1.75,1093.61692,5,-6.08628319,6.38771186,13.2767773,44.3697931,0.299230092,1.89898258,0.995004328
2009_v1_06090850_ECG,620,920,1020.97619,1027.5,1029,1.08541581,-0.384278833,2.51747073,54,32.9456494,18.7031782,0.0170648464,294,0.996759907,5,457.218115,318.734093,211.340562,121.370375,1.74,1108.66314,5,-6.1659292,6.51694915,13.2463588,44.6695154,0.29654136,1.83658214,0.982177903
2009_v1_06090850_ECG,625,925,1022.27645,1029,1029,1.10105688,-0.416695658,2.56281669,53.25,33.1821771,18.6960182,0.0171232877,293,0.996759907,5,457.149573,336.136365,214.722001,116.754598,1.84,1124.76254,5,-6.15486726,6.56196581,13.2418666,45.0196259,0.294135421,1.86858561,0.984629321
2009_v1_06090850_ECG,630,930,1023.24232,1029,1029,1.11455409,-0.449456882,2.60020957,51.25,33.3849381,18.9561498,0.0171232877,293,0.996759907,5,461.92777,351.102488,206.643902,120.09245,1.72,1139.76661,5,-5.89823009,6.64102564,13.4268852,45.2639696,0.296635167,1.53599054,1.04394596
2009_v1_06090850_ECG,635,935,1022.80205,1029,1006,1.13373465,-0.432286179,2.54972049,52.25,33.6709764,19.409255,0.0205479452,293,0.996759907,5,436.639754,363.965906,223.128302,130.351964,1.71,1154.08593,5,-6.13043478,6.46304348,13.7479351,45.5901699,0.301554812,1.53480293,1.03528497
2009_v1_06090850_ECG,640,940,1024.08874,1030,1029,1.16540306,-0.46305524,2.55675861,52,34.1380002,19.7485911,0.0239726027,293,0.996456876,5,443.036975,350.053665,263.108895,130.671681,2.01,1186.87122,5,-6.05603448,6.85745614,13.9868517,46.2079441,0.302693659,1.55001782,1.03559728
2009_v1_06090850_ECG,645,945,1025.32534,1031,1049,1.16760169,-0.511424551,2.64211667,49,34.1701872,19.8892121,0.0240549828,292,0.996153846,5,428.671794,358.205471,267.047767,134.444113,1.99,1188.36914,5,-5.96304348,6.82236842,14.0863204,46.2253065,0.30473179,1.58646183,1.04151807
2009_v1_06090850_ECG,650,950,1026.92808,1033,1049,1.20659618,-0.495680642,2.68233088,48,34.7360934,19.623606,0.0206185567,292,0.996153846,5,433.953631,377.092073,277.749205,141.776719,1.96,1230.57163,5,-5.99568966,6.73230088,13.8971183,47.1175389,0.294945759,1.57283618,1.02878161
2009_v1_06090850_ECG,655,955,1029.11986,1034,1049,1.16060758,-0.43562853,2.61199828,47.5,34.0676911,19.4336478,0.0206185567,292,0.996153846,5,401.199841,373.962377,267.271005,133.476336,2,1175.90956,5,-5.95175439,6.89347826,13.76239,46.1715473,0.298070798,1.57909794,1.03884858
2009_v1_06090850_ECG,660,960,1030.89347,1035,1049,1.10155068,-0.418205319,2.61229259,47,33.1896171,19.4012086,0.0206896552,291,0.996410256,5,364.794773,365.095376,247.458258,132.946463,1.86,1110.29487,5,-6.12284483,6.74330357,13.740182,44.8810512,0.306146618,1.93898971,0.977358248
2009_v1_06090850_ECG,665,965,1032.45704,1036,1049,1.05395936,-0.441718415,2.69876827,44.75,32.4647402,19.385028,0.0206896552,291,0.996410256,5,334.372179,356.003756,233.461557,135.193838,1.73,1059.03133,5,-6.82327586,6.90401786,13.7281557,43.8116018,0.313345214,1.94638346,0.986569307
2009_v1_06090850_ECG,670,970,1034.09655,1038,1049,1.0089595,-0.491486236,2.81400957,44,31.7641229,19.2952833,0.0207612457,290,0.996666667,5,305.429315,328.67308,249.019902,130.985165,1.9,1014.10746,5,-6.72608696,7.4375,13.6663845,42.7919261,0.319368294,1.95531481,0.99918236
2009_v1_06090850_ECG,675,975,1035.58478,1039,1049,0.945111712,-0.486539936,2.85237856,40,30.7426692,19.238633,0.0208333333,289,0.996666667,5,272.783519,280.706462,256.111637,136.241839,1.88,945.843457,5,-6.55701754,7.39285714,13.6253154,41.2864893,0.330018746,1.96189041,1.01535614
2009_v1_06090850_ECG,680,980,1036.99308,1042,1059,0.886104119,-0.503281852,2.95319838,37.5,29.767501,19.155069,0.0208333333,289,0.996666667,5,244.512426,249.231076,260.764022,128.938105,2.02,883.445628,5,-6.65401786,7.32894737,13.5673425,39.8514172,0.340448182,1.89611178,1.02816198
2009_v1_06090850_ECG,685,985,1038.56055,1044,1059,0.832552744,-0.481741525,2.99539582,38,28.8539901,19.1211416,0.0208333333,289,0.996363636,5,220.32105,238.113273,235.648604,131.11694,1.8,825.199866,5,-6.75,7.23883929,13.5423334,38.4929954,0.351812926,1.88908692,1.04048886
2009_v1_06090850_ECG,690,990,1039.46528,1044.5,1059,0.811594609,-0.515412924,3.08498582,37.5,28.4884996,18.7847703,0.0174216028,288,0.996060606,5,211.489056,246.651571,223.240789,123.699942,1.8,805.081358,5,-6.70652174,7.42954545,13.3053475,38.0283703,0.349879509,1.88167024,1.04180811
2009_v1_06090850_ECG,695,995,1040.11111,1045,1049,0.811750678,-0.551855834,3.13325814,38,28.4912386,18.8219236,0.0174216028,288,0.996060606,5,208.785657,243.962089,225.785632,126.829778,1.78,805.363156,5,-6.80482456,7.32366071,13.3313008,38.0233846,0.350607947,1.89275507,1.04533612
2009_v1_06090850_ECG,700,1000,1041.07292,1046,1049,0.816465048,-0.608261227,3.18555954,36,28.5738525,18.7776277,0.0174216028,288,0.996060606,5,209.715194,239.271006,237.767989,124.989362,1.9,811.743551,5,-6.39823009,7.47098214,13.3005372,38.1579062,0.348565699,1.87883899,1.04701065
2009_v1_06090850_ECG,705,1005,1042.14236,1047,1049,0.794861196,-0.656888063,3.33297363,34,28.1932828,18.7175969,0.0174216028,288,0.996060606,5,196.8834,226.724953,233.419928,130.189857,1.79,787.218138,5,-6.54867257,7.31306306,13.2554724,37.6033887,0.35250739,1.85589378,1.04891738
2009_v1_06090850_ECG,710,1010,1043.49129,1049,1049,0.753761287,-0.688837692,3.50584913,35,27.4547134,18.6643147,0.0174825175,287,0.996060606,5,179.37506,236.732507,206.501103,123.167031,1.68,745.775701,5,-6.44026549,7.28409091,13.220462,36.5067385,0.362137582,1.84698421,1.06027543
2009_v1_06090850_ECG,715,1015,1043.61324,1049,1049,0.75650374,-0.696180123,3.49538151,35.75,27.5046131,18.7280874,0.0174825175,287,0.996363636,5,178.713472,239.394871,207.157111,123.085899,1.68,748.351352,5,-6.34821429,7.39545455,13.2657889,36.5653706,0.362796513,1.8262909,1.04994341
2009_v1_06090850_ECG,720,1020,1043.96875,1049,1049,0.753681947,-0.727094893,3.54809074,35,27.4532684,18.6989724,0.0174216028,288,0.996363636,5,177.103588,236.735977,210.183687,122.264667,1.72,746.287919,5,-6.42105263,7.11697248,13.2452648,36.4955731,0.362927984,1.82558843,1.05606532
2009_v1_06090850_ECG,725,1025,1044.43403,1050,1049,0.750155911,-0.771691527,3.62473129,35,27.3889743,18.7489373,0.0174216028,288,0.996060606,5,172.710881,231.979881,213.36942,124.208122,1.72,742.268305,5,-6.5619469,7.34318182,13.280377,36.3860332,0.364985567,1.84764428,1.0747308
2009_v1_06090850_ECG,730,1030,1045,1050,1049,0.738566434,-0.812054919,3.75446261,34.75,27.1765788,18.6645957,0.0174825175,287,0.996060606,5,159.242648,221.418769,213.346721,135.639025,1.57,729.647163,5,-6.546875,7.35321101,13.2177105,36.0891257,0.366251889,1.82658901,1.08110058
2009_v1_06090850_ECG,735,1035,1046.40767,1051,1049,0.659186375,-0.672413337,3.43392765,34,25.6746251,18.4429758,0.013986014,287,0.996060606,5,127.868549,203.062337,193.526235,120.973114,1.6,645.430235,5,-6.67982456,7.34579439,13.0639934,33.8777925,0.385621154,2.00566075,0.9164772
2009_v1_06090850_ECG,740,1040,1046.99652,1051,1049,0.647884603,-0.737490468,3.59691004,32,25.4535774,18.4074894,0.013986014,287,0.996060606,5,118.146047,191.199137,202.522532,122.041479,1.66,633.909195,5,-6.49776786,7.34027778,13.0378819,33.5526876,0.38857936,1.96874554,0.925900768
2009_v1_06090850_ECG,745,1045,1047.98955,1052,1049,0.605031359,-0.762842734,3.87046562,31,24.5973852,18.4554841,0.013986014,287,0.996060606,5,97.0061699,165.840976,198.94579,127.388777,1.56,589.181713,5,-6.4380531,7.18925234,13.070665,32.2369421,0.405456105,1.96991885,0.949430376
2009_v1_06090850_ECG,750,1050,1048.79021,1052,1049,0.584643553,-0.765649602,3.95651209,31,24.1794035,18.1538261,0.0105263158,286,0.996060606,5,89.1242194,160.249539,205.171864,114.383158,1.79,568.92878,5,-6.4800885,7.03066038,12.8590984,31.6848654,0.405843556,1.98340964,0.973903019
2009_v1_06090850_ECG,755,1055,1049.61189,1052.5,1049,0.586876911,-0.824118882,4.04616944,31,24.2255425,18.0796483,0.0105263158,286,0.995757576,5,87.3277499,163.564485,205.295814,115.056454,1.78,571.244503,5,-6.44247788,7.20518868,12.8053729,31.7769767,0.40297644,1.96016586,0.985518737
2009_v1_06090850_ECG,760,1060,1050.49474,1053,1049,0.574138176,-0.891836614,4.29369737,30,23.9611806,18.1347655,0.0105633803,285,0.995454545,5,79.1860511,173.915627,190.320461,115.025869,1.65,558.448008,5,-6.40707965,7.25952381,12.8455549,31.3571056,0.409653717,1.94259533,1.00153546
2009_v1_06090850_ECG,765,1065,1051.06316,1053,1049,0.590573462,-0.865496499,4.24312632,29.25,24.3017173,18.0902472,0.0105633803,285,0.995454545,5,85.9144342,181.082839,196.472339,112.215296,1.75,575.684909,5,-6.50663717,7.73809524,12.8142971,31.8895079,0.401834269,1.944541,0.984373819
2009_v1_06090850_ECG,770,1070,1051.51228,1054,1049,0.597398616,-0.887755306,4.2282746,30,24.4417392,18.0058676,0.0105633803,285,0.995454545,5,90.6916946,182.481443,196.47749,113.167195,1.74,582.817822,5,-6.44419643,7.8952381,12.7539364,32.1268477,0.39698686,1.91661985,0.980718945
2009_v1_06090850_ECG,775,1075,1052.58947,1054,1049,0.559137213,-0.920515964,4.55706424,28.25,23.6460824,18.0111468,0.0105633803,285,0.995454545,5,75.4913598,186.038255,169.745872,112.072363,1.51,543.347849,5,-6.83035714,7.5,12.7576761,30.9114239,0.412717192,1.89743292,0.982961142
2009_v1_06090850_ECG,780,1080,1052.68772,1055,1049,0.559236644,-0.927787456,4.569732,28.5,23.6481848,17.8356148,0.0105633803,285,0.995454545,5,75.9013901,186.481936,167.673048,113.768528,1.47,543.824903,5,-6.84772727,7.63084112,12.6338755,30.9654401,0.407999223,1.85106737,0.973709013
2009_v1_06090850_ECG,785,1085,1052.78596,1055,1049,0.559696985,-0.935275907,4.58349726,28.25,23.6579159,17.8314685,0.0105633803,285,0.995151515,5,88.2770571,176.287893,171.337885,110.14783,1.56,546.050666,5,-6.92272727,7.68691589,12.630901,30.9815156,0.407691512,1.86382962,0.980204199
2009_v1_06090850_ECG,790,1090,1053.75704,1055.5,1049,0.594417795,-0.79314859,4.54142079,30,24.3806849,17.7811589,0.0106007067,284,0.995151515,5,95.9153602,184.19037,188.941782,109.221311,1.73,578.268823,5,-7.04587156,7.61214953,12.5943011,32.0970274,0.392382164,1.84248681,0.966189418
2009_v1_06090850_ECG,795,1095,1054.85563,1056,1049,0.59200382,-0.815264853,4.70719857,28,24.3311286,17.7625683,0.0106007067,284,0.995151515,5,91.9526357,174.607977,195.002384,113.870647,1.71,575.433644,5,-6.87268519,7.59259259,12.579842,32.0274135,0.392783576,1.85633391,0.973998325
2009_v1_06090850_ECG,800,1100,1056.27465,1056,1049,0.561641616,-0.831047909,5.07352405,27,23.6989792,17.5439881,0.0106007067,284,0.995151515,5,82.5060467,152.610427,193.456423,113.282903,1.71,541.855799,5,-6.88194444,7.60416667,12.4242299,31.1275078,0.399139886,1.85180654,0.975053147
2009_v1_06090850_ECG,805,1105,1057.76678,1058,1049,0.518959602,-0.585838619,4.53725308,27,22.7806848,17.2151591,0.0106382979,283,0.995151515,5,76.8773247,150.372939,170.735646,101.856139,1.68,499.842048,5,-6.90825688,7.46933962,12.193897,29.8199276,0.408917726,1.84619989,0.978777779
2009_v1_06090850_ECG,810,1110,1058.13028,1058,1049,0.524403461,-0.601464518,4.4879669,27.5,22.8998572,17.2862003,0.0106007067,284,0.995151515,5,81.4826797,150.682009,170.454653,103.017027,1.65,505.636369,5,-6.66363636,7.18396226,12.2438591,29.9815749,0.408379452,1.86565917,0.982657913
2009_v1_06090850_ECG,815,1115,1058.91197,1059,1049,0.513204238,-0.668783058,4.71183676,27,22.6540115,17.2932512,0.0106007067,284,0.995151515,5,77.5884134,150.144451,164.490697,103.03764,1.6,495.2612,5,-6.52045455,7.22169811,12.2494073,29.6033866,0.413783986,1.86192572,0.98801881
2009_v1_06090850_ECG,820,1120,1059.50177,1059,1056,0.529669323,-0.654297708,4.61957313,26,23.0145459,17.6365996,0.0106382979,283,0.995151515,5,83.5228728,149.893478,170.864254,107.220215,1.59,511.50082,5,-6.48611111,7.29906542,12.4924469,30.054574,0.415658759,1.88868586,0.971807901
2009_v1_06090850_ECG,825,1125,1060.46996,1060,1056,0.512093953,-0.644460579,4.78074965,26,22.629493,17.5121032,0.0106382979,283,0.994848485,5,80.5444047,143.929139,164.312365,104.215204,1.58,493.001113,5,-6.56363636,7.33962264,12.4047417,29.5010219,0.420485152,1.90631609,0.986158956
2009_v1_06090850_ECG,830,1130,1060.89362,1061,1056,0.513212842,-0.685847206,4.82256465,27,22.6542014,17.5166418,0.0106761566,282,0.994848485,5,80.3407037,144.399593,162.552003,106.311828,1.53,493.604128,5,-6.57727273,7.54047619,12.4078648,29.5376129,0.420069992,1.90190567,0.981666222
2009_v1_06090850_ECG,835,1135,1061.26502,1062,1056,0.502727389,-0.714113544,4.98584597,26,22.4215831,17.2148501,0.0106382979,283,0.995151515,5,78.9672023,144.118216,160.537501,99.5780692,1.61,483.200988,5,-6.59772727,7.57075472,12.194216,29.2703925,0.416605824,1.90337425,0.990398978
2009_v1_06090850_ECG,840,1140,1061.53004,1063,1056,0.494398917,-0.76409553,5.13686258,26,22.235083,16.8170169,0.0106382979,283,0.995151515,5,82.5287178,142.307847,159.148044,92.445369,1.72,476.429978,5,-6.65909091,7.38207547,11.9124905,29.1013815,0.4093445,1.90943277,1.00486737
2009_v1_06090850_ECG,845,1145,1062.01773,1063.5,1056,0.502359115,-0.763010213,5.11800375,26,22.4133691,16.8875283,0.0106761566,282,0.995151515,5,84.9540079,142.924757,161.348434,95.0452292,1.7,484.272428,5,-6.65,7.27619048,11.9619264,29.353544,0.407512171,1.8899771,0.99377519
2009_v1_06090850_ECG,850,1150,1062.7695,1064,1056,0.52498227,-0.703167714,4.99198779,27,22.9124916,16.9705627,0.0106761566,282,0.994848485,5,95.8442814,149.45549,164.434706,96.1933566,1.71,505.927834,5,-6.71136364,7.30238095,12.0204579,30.0910806,0.399469134,1.88490094,0.976577371
2009_v1_06090850_ECG,855,1155,1063.47163,1064.5,1056,0.549203819,-0.633242164,4.88650442,26,23.435098,17.1472584,0.0106761566,282,0.994545455,5,104.347111,161.234085,170.962589,93.0051456,1.84,529.548931,5,-6.7293578,7.29285714,12.1465238,30.8361735,0.393905028,1.88149971,0.958268672
2009_v1_06090850_ECG,860,1160,1064.31915,1065,1056,0.569029454,-0.576181952,4.87082418,27,23.8543383,17.1943051,0.0106761566,282,0.994545455,5,110.264315,166.748653,175.232223,95.8298537,1.83,548.075045,5,-6.48863636,7.26201923,12.1787651,31.4600793,0.387118066,1.90781702,0.965470044
2009_v1_06090850_ECG,865,1165,1065.13475,1066.5,1056,0.577312738,-0.613547598,4.84156097,27,24.0273331,17.2657685,0.0106761566,282,0.994545455,5,116.358829,170.022135,175.142477,95.3261469,1.84,556.849588,5,-6.63657407,7.10238095,12.2300656,31.7025389,0.385775588,1.88271394,0.954947748
2009_v1_06090850_ECG,870,1170,1065.71886,1067,1056,0.577888536,-0.65907881,4.901285,27.25,24.0393123,17.4683387,0.0107142857,281,0.994545455,5,115.260653,168.869864,176.370457,96.4903746,1.83,556.99135,5,-6.5259434,7.1509434,12.3737982,31.6649047,0.390773263,1.87990116,0.953501998
2009_v1_06090850_ECG,875,1175,1066.49822,1068,1056,0.571715175,-0.703368349,5.0487478,27.25,23.9105662,17.5257973,0.0107142857,281,0.994545455,5,113.158296,164.574714,175.055178,97.7227842,1.79,550.510971,5,-6.73364486,7.11190476,12.4142298,31.453414,0.394686244,1.86163218,0.954451064
2009_v1_06090850_ECG,880,1180,1066.92553,1068,1056,0.576026463,-0.705503357,5.04476696,28,24.0005513,17.7640727,0.0106761566,282,0.994545455,5,108.591027,165.721103,177.331864,102.498705,1.73,554.142699,5,-6.60416667,7.16190476,12.5835065,31.523139,0.39918317,1.88115451,0.948745973
2009_v1_06090850_ECG,885,1185,1066.96085,1068,1056,0.576602034,-0.707877963,5.05185254,28,24.0125391,17.7058304,0.0107142857,281,0.994545455,5,100.744629,172.53236,179.645719,100.756949,1.78,553.679658,5,-6.48364486,7.23333333,12.5422724,31.5578116,0.397437963,1.88652096,0.947040754
2009_v1_06090850_ECG,890,1190,1067.19929,1068,1056,0.569574428,-0.729764363,5.1783726,27,23.8657585,17.7070406,0.0107142857,281,0.994545455,5,94.9384276,174.109271,176.647493,100.514474,1.76,546.209666,5,-6.86448598,7.29285714,12.5431562,31.3339766,0.400305277,1.89332418,0.952034334
2009_v1_06090850_ECG,895,1195,1067.71886,1069,1056,0.561409964,-0.783642768,5.36034446,27,23.6940913,17.6327617,0.0107142857,281,0.994242424,5,89.4752479,169.154798,180.741306,98.6321779,1.83,538.00353,5,-6.9452381,7.34813084,12.4905689,31.093498,0.401709994,1.89257962,0.963357918
2009_v1_06090850_ECG,900,1200,1068.23843,1069,1075,0.567389375,-0.810740879,5.34851001,27.25,23.8199365,17.746227,0.0107142857,281,0.994242424,5,90.9795923,162.593442,188.654979,101.852562,1.85,544.080575,5,-6.27570093,7.31190476,12.5696982,31.2535028,0.40218526,1.86961626,0.945957084
2009_v1_06090850_ECG,905,1205,1069.53025,1071,1075,0.51926426,-0.786098702,5.82177715,27,22.7873706,17.834457,0.0107142857,281,0.994242424,5,77.1990738,140.406867,162.963183,111.694515,1.46,492.263639,5,-6.4953271,6.80528846,12.6304354,29.6479446,0.426013863,1.88930193,0.980181912
2009_v1_06090850_ECG,910,1210,1070.01429,1071,1075,0.505820584,-0.752558015,5.84219945,28,22.4904554,17.3425327,0.00716845878,280,0.994242424,5,75.8357152,141.421048,164.820167,98.8130334,1.67,480.889964,5,-6.61778846,6.74764151,12.2848672,29.3380845,0.418734468,1.85469702,0.970550124
2009_v1_06090850_ECG,915,1215,1070.11429,1071,1075,0.50636682,-0.763420988,5.84507564,28,22.5025959,17.4591176,0.00716845878,280,0.994545455,5,66.2658977,148.307253,164.079732,101.860524,1.61,480.513407,5,-6.91273585,6.65384615,12.3676131,29.3219336,0.421787091,1.83596397,0.970638906
2009_v1_06090850_ECG,920,1220,1070.61071,1072,1075,0.504152573,-0.803083552,5.95061307,27.5,22.4533421,17.4349791,0.00716845878,280,0.994848485,5,62.9431948,149.758218,163.500814,101.709756,1.61,477.911983,5,-6.87028302,6.80769231,12.3503408,29.2536191,0.422181636,1.80866275,0.969935102
2009_v1_06090850_ECG,925,1225,1070.82143,1072,1075,0.51065617,-0.796107966,5.8589086,28,22.5977028,17.5846137,0.00716845878,280,0.994848485,5,66.8441115,147.569249,166.616381,103.726071,1.61,484.755812,5,-6.96428571,6.89047619,12.4561695,29.4305314,0.423239707,1.84267282,0.970845664
2009_v1_06090850_ECG,930,1230,1071.19643,1072.5,1075,0.508151242,-0.825906688,5.96116055,27.5,22.5422102,16.7303086,0.00358422939,280,0.994848485,5,64.2057146,138.711754,176.461638,101.943258,1.73,481.322363,5,-6.75,6.96153846,11.8494076,29.5955068,0.4003786,1.81459748,0.972322523
2009_v1_06090850_ECG,935,1235,1072.96071,1073,1075,0.383321032,0.0494208104,2.73649849,27,19.5785861,16.1896245,0,280,0.994848485,5,44.5006144,107.042081,119.006239,83.3712468,1.43,353.920181,5,-6.92619048,7.00952381,11.4683169,25.2015827,0.455063358,2.03957648,0.740722042
2009_v1_06090850_ECG,940,1240,1073.28674,1074,1075,0.394068565,0.0405690755,2.67015095,28,19.8511603,16.3681785,0,279,0.995151515,5,49.207958,107.73776,120.07721,87.216174,1.38,364.239102,5,-7.0047619,7.10377358,11.594748,25.567537,0.453494912,2.11947418,0.731933944
2009_v1_06090850_ECG,945,1245,1073.4,1074,1068,0.38935914,0.0338471029,2.71280715,28,19.7321854,16.2992842,0,280,0.995151515,5,47.4520537,109.495905,115.868126,86.8408289,1.33,359.656914,5,-7.34669811,7.0754717,11.545944,25.4049101,0.454476871,2.1900303,0.750705607
2009_v1_06090850_ECG,950,1250,1072.93929,1073,1075,0.391612788,0.0665772731,2.71863086,27,19.7892089,16.3560299,0,280,0.994848485,5,49.0948929,105.826902,118.302699,88.4130665,1.34,361.637561,5,-7.38221154,7.19954128,11.586024,25.4752747,0.454794861,2.18643963,0.762530148
2009_v1_06090850_ECG,955,1255,1072.72401,1073,1075,0.391286867,0.0887503243,2.73291353,26,19.7809724,16.5354426,0,279,0.994848485,5,52.5329422,103.060396,115.573192,90.0382406,1.28,361.20477,5,-7.48300971,7.1353211,11.7130304,25.4043038,0.461064807,2.20471048,0.760333384
2009_v1_06090850_ECG,960,1260,1072.86429,1073,1075,0.392139222,0.0778010051,2.72141932,26,19.8025054,16.6852584,0,280,0.994545455,5,53.415199,101.016152,115.978767,91.5372796,1.27,361.947397,5,-7.50242718,7.25909091,11.81946,25.3885567,0.465542808,2.19717319,0.768854963
2009_v1_06090850_ECG,965,1265,1073.16487,1074,1068,0.388591424,0.0659210576,2.7248186,27,19.7127224,16.5500114,0,279,0.994242424,5,50.8889397,101.973617,115.676235,89.908251,1.29,358.447043,5,-7.69174757,7.28899083,11.7237299,25.2930229,0.463516359,2.29178702,0.780135739
2009_v1_06090850_ECG,970,1270,1073.16487,1074,1075,0.391159769,0.0591805389,2.69736798,27.75,19.7777595,16.6414798,0,279,0.994242424,5,47.1720733,103.224554,117.516645,92.1644791,1.28,360.077752,5,-7.58088235,7.25675676,11.7885112,25.3643557,0.464766829,2.29536485,0.782482232
2009_v1_06090850_ECG,975,1275,1073.33929,1074.5,1075,0.387285906,0.045225812,2.72512943,26.5,19.6795809,16.7054388,0,280,0.993939394,5,44.057715,103.556048,116.335283,91.8682125,1.27,355.817258,5,-7.78921569,6.98660714,11.8337487,25.1899624,0.469780325,2.26741697,0.778468919
2009_v1_06090850_ECG,980,1280,1073.88172,1075,1075,0.388270132,-0.00100870902,2.72257713,26.75,19.7045714,16.8243144,0,279,0.993636364,5,40.1803342,103.465966,116.343754,96.8423164,1.2,356.832371,5,-7.71359223,7.10135135,11.9176481,25.1894805,0.473120041,2.26383859,0.779006178
2009_v1_06090850_ECG,985,1285,1073.94982,1075,1075,0.384695315,0.00757910774,2.741332,26.5,19.6136512,16.8526197,0,279,0.993939394,5,37.551667,103.720846,113.993731,97.6037013,1.17,352.869946,5,-7.65776699,7.08558559,11.9380138,25.037461,0.476806087,2.21920348,0.777214117
2009_v1_06090850_ECG,990,1290,1073.91071,1075,1075,0.390676587,-0.024016297,2.7238278,26.5,19.7655404,17.0767821,0,280,0.993939394,5,34.4863835,103.61977,115.599871,104.133595,1.11,357.839621,5,-7.6127451,7.08849558,12.0967617,25.1996335,0.480037208,2.27007301,0.765720275
2009_v1_06090850_ECG,995,1295,1074.01071,1075,1075,0.39102139,-0.0621670802,2.82397164,25.5,19.7742608,17.2827011,0.00358422939,280,0.993636364,5,29.9783208,107.86581,113.761443,106.871601,1.06,358.477175,5,-7.74752475,7.0372807,12.2426306,25.1428076,0.486923767,2.29539082,0.758935064
2009_v1_06090850_ECG,1000,1300,1074.05018,1075,1075,0.39445071,-0.0710788791,2.79291494,27.5,19.8607832,17.4186702,0.0035971223,279,0.993636364,5,29.6847964,108.708321,112.80937,110.513778,1.02,361.716265,5,-7.88613861,6.75663717,12.3389451,25.231961,0.489020455,2.2876428,0.741693228
2009_v1_06090850_ECG,1005,1305,1074.17921,1075,1075,0.394737552,-0.0910306074,2.79992664,27,19.8680032,17.5260341,0.0035971223,279,0.993636364,5,26.9967972,110.925937,110.854485,112.996925,0.98,361.774144,5,-7.5,6.67982456,12.4150515,25.2059834,0.492543823,2.30683725,0.748077698
2009_v1_06090850_ECG,1010,1310,1074.37276,1076,1075,0.400364147,-0.101453884,2.74988311,28,20.0091016,17.6852985,0.0035971223,279,0.993636364,5,25.9293206,112.504471,112.842647,115.495487,0.98,366.771926,5,-7.6025,6.82391304,12.5274454,25.3730449,0.493730471,1.95715196,0.986504317
2009_v1_06090850_ECG,1015,1315,1074.91039,1076,1075,0.386304892,-0.0729251257,2.73817152,28,19.6546405,17.8183278,0.0035971223,279,0.993636364,5,19.0976393,106.640726,109.445679,117.313985,0.93,352.498029,5,-7.68811881,6.62719298,12.6221392,24.7647206,0.509682277,2.29536485,0.755688041
2009_v1_06090850_ECG,1020,1320,1074.84946,1076,1075,0.390437689,-0.0906048271,2.74823016,28,19.7594962,17.8331596,0.0035971223,279,0.993939394,5,17.4728464,104.219728,114.229159,119.634116,0.95,355.555849,5,-7.71078431,6.86725664,12.6326728,24.9257087,0.506812983,2.28792987,0.75245274
2009_v1_06090850_ECG,1025,1325,1074.81004,1076,1075,0.395470978,-0.126649964,2.80550615,28,19.8864521,18.0624417,0.0035971223,279,0.993939394,5,17.4008392,108.324703,112.355257,122.816974,0.91,360.897773,5,-7.87019231,7.27927928,12.7950263,25.0445455,0.510890737,2.29920362,0.733497358
2009_v1_06090850_ECG,1030,1330,1074.79928,1076,1077,0.395786906,-0.132063169,2.82895187,28,19.8943938,18.0857271,0.0035971223,279,0.993636364,5,18.645183,112.540095,104.440404,125.353621,0.83,360.979304,5,-7.85952381,7.125,12.8110196,25.0489838,0.511438698,2.2837593,0.724631516
2009_v1_06090850_ECG,1035,1335,1074.72401,1076,1077,0.390689745,-0.0827060085,2.78731108,28,19.7658732,18.1123591,0.0035971223,279,0.993636364,5,21.8403084,110.913398,96.2236687,127.210828,0.76,356.188203,5,-7.80048077,7.12272727,12.8304044,24.8346575,0.516633031,2.24990247,0.726960007
2009_v1_06090850_ECG,1040,1340,1074.72043,1076,1077,0.391864006,-0.0913482327,2.79314403,28,19.7955552,18.1527293,0.0035971223,279,0.993636364,5,25.9839993,107.297728,98.4078333,126.503911,0.78,358.193472,5,-7.78712871,7.25442478,12.8590361,24.8671108,0.517110179,2.29151128,0.734881695
2009_v1_06090850_ECG,1045,1345,1074.63441,1076,1077,0.392901833,-0.0740860288,2.75269435,28,19.8217515,18.1496576,0.0035971223,279,0.993333333,5,33.5079952,104.654381,92.7086648,129.187854,0.72,360.058895,5,-7.7975,6.98684211,12.8564453,24.9101482,0.516112759,2.25213611,0.717615816
2009_v1_06090850_ECG,1050,1350,1074.69534,1076,1077,0.395780949,-0.0985394493,2.7562081,28,19.8942441,18.2435561,0.0035971223,279,0.993030303,5,34.455504,105.121404,91.842858,131.557094,0.7,362.97686,5,-7.93382353,6.921875,12.923262,24.9910224,0.517116179,2.22774466,0.710137309
2009_v1_06090850_ECG,1055,1355,1074.77419,1076,1077,0.399074727,-0.104296761,2.72294933,28.75,19.9768548,18.3915253,0.0035971223,279,0.993333333,5,33.119698,106.557961,92.072494,133.561677,0.69,365.31183,5,-7.87380952,6.89908257,13.0281534,25.0682403,0.519707534,2.32534568,0.71416741
2009_v1_06090850_ECG,1060,1360,1074.43571,1075,1077,0.406368612,-0.0847322621,2.66186295,28.5,20.1585866,18.4098112,0.00358422939,280,0.993333333,5,39.8271217,101.193805,95.350011,136.385814,0.7,372.756752,5,-7.89423077,6.9954955,13.0404516,25.35121,0.514391682,2.06540573,0.968626204
2009_v1_06090850_ECG,1065,1365,1074.01075,1075,1077,0.414751683,-0.0910270636,2.67508808,28.75,20.3654532,18.4706651,0.0035971223,279,0.993030303,5,45.3243633,100.889451,97.3499402,138.129161,0.7,381.692915,5,-8.03398058,6.90990991,13.0842826,25.6574534,0.509960301,2.08627305,0.96904987
2009_v1_06090850_ECG,1070,1370,1073.74194,1075,1077,0.421091437,-0.0804812819,2.65232724,29,20.5205126,18.6155733,0.0035971223,279,0.993333333,5,50.6069196,102.014265,92.2087915,143.09148,0.64,387.921456,5,-8.01941748,6.90540541,13.1868178,25.8513193,0.510102315,2.06986002,0.957434661
2009_v1_06090850_ECG,1075,1375,1073.63441,1075,1077,0.424081689,-0.083136862,2.66366003,29,20.5932438,18.6250392,0.0035971223,279,0.993636364,5,57.2964899,100.64682,92.3843945,141.272719,0.65,391.600424,5,-7.90144231,7.16363636,13.1935008,25.9633379,0.508158881,2.12440705,0.956999322
2009_v1_06090850_ECG,1080,1380,1073.89286,1075,1077,0.420346902,-0.0926422086,2.6708569,29,20.5023633,18.6074329,0.00358422939,280,0.993636364,5,59.1375546,98.0041693,88.5718123,142.657667,0.62,388.371203,5,-7.71428571,7.42567568,13.1809444,25.8255012,0.510384843,2.13167069,0.959533594
2009_v1_06090850_ECG,1085,1385,1073.7276,1075,1077,0.425997473,-0.0930592163,2.64505112,29,20.6397062,18.716649,0.0035971223,279,0.993939394,5,62.0602556,95.5496353,90.955455,145.59652,0.62,394.161866,5,-7.6745283,7.53440367,13.2584077,26.0040299,0.50985973,2.08464381,0.946832974
2009_v1_06090850_ECG,1090,1390,1073.32143,1074,1077,0.417437532,-0.111289227,2.64359466,29.5,20.4312881,19.0483256,0.00358422939,280,0.993939394,5,54.1099875,92.9173009,83.4974497,154.6217,0.54,385.146438,5,-7.86915888,7.33636364,13.4934027,25.5500127,0.528117261,2.11957864,0.963818856
2009_v1_06090850_ECG,1095,1395,1073.23214,1074,1077,0.42190649,-0.102108972,2.62479299,30,20.5403625,19.2748466,0.00358422939,280,0.993939394,5,49.8364751,93.5303878,81.3200545,164.01336,0.5,388.700278,5,-8.07075472,7.52927928,13.653832,25.6395369,0.532530369,2.15812576,0.96659337
2009_v1_06090850_ECG,1100,1400,1073.2509,1074,1077,0.432418839,-0.0515060764,2.65531111,30.5,20.794683,19.7358455,0.0035971223,279,0.993939394,5,44.0653637,97.1052498,83.0921572,173.004327,0.48,397.267098,5,-8.09813084,7.69090909,13.9805093,25.8724378,0.540363045,2.14969661,0.945384306
2009_v1_06090850_ECG,1105,1405,1072.96071,1074,1077,0.434604186,-0.0158769605,2.63852492,30,20.8471625,19.8639639,0.00716845878,280,0.993939394,5,38.8337101,101.303034,80.823299,177.601117,0.46,398.56116,5,-8.0787037,7.76590909,14.0711648,25.9077342,0.543126029,2.19261095,0.947713051
2009_v1_06090850_ECG,1110,1410,1072.97849,1074,1077,0.435172198,-0.0163343629,2.63887506,30,20.8607813,19.9411003,0.0071942446,279,0.993939394,5,37.9030394,102.248114,79.1964169,179.614407,0.44,398.961977,5,-8.09579439,7.77727273,14.1258245,25.8999127,0.54540047,2.20575269,0.948017782
2009_v1_06090850_ECG,1115,1415,1073.02509,1074,1077,0.434369872,-0.0221391701,2.64767643,29.75,20.841542,19.8593073,0.0071942446,279,0.993939394,5,37.5823393,102.135186,79.3026669,178.686718,0.44,397.70691,5,-8.39622642,7.81306306,14.0678075,25.9005123,0.54314785,2.08217162,0.946028732
2009_v1_06090850_ECG,1120,1420,1073.01071,1074,1077,0.429551856,-0.035511144,2.66911999,29.5,20.7256328,19.6517166,0.00716845878,280,0.993939394,5,32.8402556,102.894663,80.0484304,177.913595,0.45,393.696943,5,-8.65654206,7.94144144,13.9207486,25.7937293,0.539695072,2.06733325,0.949726382
2009_v1_06090850_ECG,1125,1425,1072.95341,1074,1077,0.42669926,-0.0410258859,2.69302613,28.75,20.6567001,19.5985795,0.0071942446,279,0.994242424,5,31.089944,104.205487,79.803584,176.135014,0.45,391.234029,5,-8.44103774,8.02477477,13.8832788,25.7031728,0.540138716,2.09882504,0.974407429
2009_v1_06090850_ECG,1130,1430,1072.82857,1074,1065,0.427776959,-0.0322193146,2.68467731,28.5,20.6827696,19.6188593,0.00716845878,280,0.994545455,5,31.9572598,102.472521,82.7738188,175.018563,0.47,392.222163,5,-8.60981308,8.30855856,13.8975566,25.7373627,0.539975941,2.11714259,0.973143199
2009_v1_06090850_ECG,1135,1435,1072.82857,1074,1065,0.433905991,-0.0498388692,2.65998706,29,20.8304102,19.7387961,0.00716845878,280,0.994545455,5,33.6459224,101.191614,83.9466896,178.522357,0.47,397.306584,5,-9.00714286,8.33185841,13.9823099,25.9288834,0.539256153,2.15147131,0.97888659
2009_v1_06090850_ECG,1140,1440,1072.13929,1073.5,1077,0.460873003,-0.0880863736,2.65651448,30.5,21.4679529,19.7542246,0.00716845878,280,0.994545455,5,37.1400623,112.217998,94.8950531,179.685157,0.53,423.93827,5,-9.02380952,8.44078947,13.993148,26.9432332,0.519356677,2.19775235,0.964467437
2009_v1_06090850_ECG,1145,1445,1071.75357,1073,1077,0.458150525,-0.0610851301,2.66372319,30,21.4044511,19.7534081,0.00716845878,280,0.994545455,5,36.6620464,116.44602,88.4339033,179.975147,0.49,421.517117,5,-9.0259434,8.42920354,13.992011,26.8425907,0.521261571,2.18484894,0.954761164
2009_v1_06090850_ECG,1150,1450,1071.36071,1072.5,1085,0.446045046,-0.0729517071,2.67629136,29.5,21.1197786,19.8197975,0.00716845878,280,0.994848485,5,29.0984853,109.900847,88.6756399,181.36583,0.49,409.040802,5,-8.61904762,8.40131579,14.0390704,26.3627501,0.532534365,2.13542617,0.95845961
2009_v1_06090850_ECG,1155,1455,1071.475,1073,1085,0.45136138,-0.0468320068,2.74902966,29.5,21.2452672,19.7999855,0.00716845878,280,0.995151515,5,21.7045857,118.604768,90.8299856,181.283146,0.5,412.422485,5,-8.60514019,8.32589286,14.0245698,26.5713041,0.527808864,2.06969299,0.941161515
2009_v1_06090850_ECG,1160,1460,1071.62143,1073,1085,0.451368715,-0.0733494852,2.71820052,29.5,21.2454399,19.7700944,0.00716845878,280,0.994848485,5,17.0942906,134.943958,83.3867036,176.628019,0.47,412.052971,5,-8.57175926,8.28378378,14.0046218,26.5820992,0.526844088,2.08261005,0.938223775
2009_v1_06090850_ECG,1165,1465,1071.65714,1073,1085,0.46010425,-0.00869676742,2.81194691,29.5,21.4500408,20.0833389,0.00716845878,280,0.994545455,5,14.5724335,142.301147,79.3490938,182.790295,0.43,419.01297,5,-8.73364486,8.43303571,14.2265801,26.7920309,0.531000435,2.10433558,0.926869322
2009_v1_06090850_ECG,1170,1470,1071.45714,1073,1085,0.459467691,0.00726012414,2.82351074,29.5,21.4351975,20.0552999,0.00716845878,280,0.994545455,5,13.0923535,139.610628,80.8054985,185.283088,0.44,418.791567,5,-8.78971963,8.36036036,14.2066988,26.778818,0.530520011,2.1461523,0.931904716
2009_v1_06090850_ECG,1175,1475,1071.66429,1073,1085,0.475858218,0.0697043982,2.85671619,29.5,21.8141747,20.3264575,0.0107526882,280,0.994242424,5,14.0867538,137.184865,87.8463578,193.582792,0.45,432.700768,5,-8.85514019,8.43181818,14.3986402,27.2836141,0.527739477,2.16593275,0.914436782
2009_v1_06090850_ECG,1180,1480,1072.01792,1073,1077,0.485211908,0.116110569,2.94726564,29,22.0275261,20.4155569,0.0143884892,279,0.993939394,5,17.2655105,139.883721,93.6204204,189.935647,0.49,440.705299,5,-8.54009434,8.64090909,14.4619858,27.5912084,0.524151955,2.2007861,0.924915321
2009_v1_06090850_ECG,1185,1485,1072.45,1074,1077,0.491624731,0.0939478665,2.9178826,28,22.1726122,20.7634743,0.0143369176,280,0.993636364,5,20.9986646,137.158404,91.4842181,196.894179,0.46,446.535465,5,-8.61556604,8.5990991,14.7083707,27.6931994,0.531118508,2.19812751,0.918233424
2009_v1_06090850_ECG,1190,1490,1072.95699,1074,1085,0.502451381,0.0646205873,2.84777201,29,22.4154273,20.8283495,0.0143884892,279,0.993636364,5,26.6701725,141.09871,90.2064091,199.234201,0.45,457.209493,5,-8.68457944,8.70412844,14.7544199,28.0572603,0.525868163,2.24264806,0.904184658
2009_v1_06090850_ECG,1195,1495,1073.41935,1074,1077,0.515568113,0.0420819084,2.75820325,29.75,22.706125,20.8207492,0.0143884892,279,0.993939394,5,33.3002869,143.926668,92.2499645,199.963664,0.46,469.440583,5,-8.78537736,8.575,14.749036,28.5237123,0.517079818,2.20786195,0.895089901
2009_v1_06090850_ECG,1200,1500,1073.84643,1074.5,1077,0.538395686,0.103439527,2.83329553,30.5,23.2033551,20.9218549,0.0143369176,280,0.993939394,5,42.7726747,144.691787,98.1377032,204.358423,0.48,489.960589,5,-9.08411215,8.60681818,14.8200038,29.2772755,0.506194773,2.16636056,0.873456034
2009_v1_06090850_ECG,1205,1505,1074.49104,1075,1077,0.597293984,0.371789641,3.63437046,30.75,24.4395987,21.2535228,0.0143884892,279,0.993939394,5,59.6331385,166.506111,113.111835,203.899114,0.55,543.150199,5,-9.40714286,8.71396396,15.0554887,31.1114164,0.483921675,2.14209097,0.849164942
2009_v1_06090850_ECG,1210,1510,1075.42294,1075,1077,0.682583069,0.656645268,4.36454872,30.75,26.1262908,21.5542648,0.0143884892,279,0.993939394,5,85.4410122,211.424439,114.136704,208.9486,0.55,619.950756,5,-9.46601942,9.21205357,15.2685917,33.6457463,0.453804518,2.20942242,0.831073263
2009_v1_06090850_ECG,1215,1515,1076.63082,1076,1077,0.716219334,0.633063603,4.09921569,31.75,26.7622745,21.4977831,0.0143884892,279,0.993636364,5,110.453906,240.451491,88.1600994,213.003001,0.41,652.068497,5,-9.81127451,9.31026786,15.2283813,34.6487384,0.439507528,2.06804592,1.03022291
2009_v1_06090850_ECG,1220,1520,1076.73022,1076,1077,0.72312912,0.630596917,4.05342991,32,26.8910602,21.7784214,0.0144404332,278,0.993636364,5,114.617041,243.682293,82.4067389,218.323651,0.38,659.029724,5,-10.0074257,9.44196429,15.4270333,34.7601048,0.443814349,2.05326712,1.02253841
2009_v1_06090850_ECG,1225,1525,1076.80645,1076,1077,0.723394059,0.621100278,4.03156485,31.75,26.8959859,21.7043576,0.0143884892,279,0.993636364,5,120.014248,235.643815,88.3358373,215.980903,0.41,659.974803,5,-9.67718447,9.46590909,15.374955,34.7907872,0.441926046,2.0035074,1.01722621
2009_v1_06090850_ECG,1230,1530,1077.96403,1076,1077,0.817240579,0.750269483,4.08349414,32,28.5874199,22.1272983,0.0180505415,278,0.993636364,5,159.739872,229.183807,136.54643,220.36434,0.62,745.83445,5,-9.58413462,9.60185185,15.6738274,37.266772,0.420584519,2.00874891,0.99101692
2009_v1_06090850_ECG,1235,1535,1078.7482,1076,1077,0.867069943,0.72175299,3.77317497,35,29.4460514,22.1495573,0.0180505415,278,0.993636364,5,196.146258,253.746637,122.697056,221.68437,0.55,794.274321,5,-9.51470588,9.95,15.6895693,38.5743088,0.40673624,2.00652603,0.971427542
2009_v1_06090850_ECG,1240,1540,1079.05755,1076,1077,0.889245773,0.719489419,3.67631752,35,29.8202242,22.3047485,0.0180505415,278,0.993636364,5,220.1485,266.039005,102.303344,229.567512,0.45,818.058361,5,-9.94362745,10.1568182,15.7994282,39.1007623,0.404069571,2.03813963,0.962630336
2009_v1_06090850_ECG,1245,1545,1079.63669,1077,1077,0.906961393,0.670225342,3.52130518,35,30.1157997,22.5649484,0.0180505415,278,0.993636364,5,236.178993,267.527169,99.5139052,233.600173,0.43,836.820241,5,-10.223301,10.2752294,15.9841959,39.4769333,0.404899636,2.04164046,0.953035981
2009_v1_06090850_ECG,1250,1550,1080.02888,1077,1077,0.908100612,0.649025456,3.47995944,37,30.1347078,22.8248688,0.018115942,277,0.993636364,5,231.73961,271.830532,95.6420826,238.341378,0.4,837.553602,5,-10.1428571,10.4528302,16.1686278,39.4306568,0.410052206,2.0337025,0.941809808
2009_v1_06090850_ECG,1255,1555,1080.22662,1077,1085,0.925121744,0.625169615,3.39111098,37,30.415814,23.2213489,0.0180505415,278,0.993636364,5,227.945159,273.127904,102.054088,247.4819,0.41,850.609052,5,-10.3004808,10.337963,16.4494763,39.7449144,0.413876254,2.03796196,0.935430072
2009_v1_06090850_ECG,1260,1560,1078.31655,1077,1085,1.13250593,-0.0176765042,4.53423195,38,33.6527255,23.4226587,0.0216606498,278,0.993939394,5,160.757667,409.445822,237.025439,245.067547,0.97,1052.29648,5,-9.98039216,10.5229358,16.5901661,44.6069306,0.371919024,1.82896482,1.0113366
2009_v1_06090850_ECG,1265,1565,1077.84588,1076,1085,1.14766321,-0.00658422004,4.45622702,39,33.8771783,23.6485052,0.0215827338,279,0.994242424,5,147.724243,450.104181,227.683585,241.855794,0.94,1067.3678,5,-10.1723301,10.5114679,16.7520816,44.8853449,0.373219401,1.8617977,1.00838633
2009_v1_06090850_ECG,1270,1570,1078.03237,1077,1076,1.14971375,-0.0228456913,4.45763921,38,33.9074291,23.7487602,0.0216606498,278,0.994242424,5,140.744115,459.45124,223.420931,244.606777,0.91,1068.22306,5,-10.1893204,10.2568807,16.8230657,44.9044759,0.374641176,1.82533506,0.991380191
2009_v1_06090850_ECG,1275,1575,1078.15468,1077,1077,1.15113483,-0.0326730085,4.44730032,38,33.928378,23.860606,0.0216606498,278,0.994545455,5,139.442274,459.975022,223.324204,246.915656,0.9,1069.65715,5,-10.1863208,10.4339623,16.9024712,44.9063039,0.376394175,1.84786417,0.995353925
2009_v1_06090850_ECG,1280,1580,1078.01434,1077,1077,1.14564008,-0.0224191871,4.47243623,37.75,33.8473054,23.8782132,0.0215827338,279,0.994848485,5,144.918066,453.479575,219.874105,245.895887,0.89,1064.16763,5,-10.2430556,10.6214286,16.9148532,44.7791012,0.377739899,1.86165652,0.9898387
2009_v1_06090850_ECG,1285,1585,1078.51439,1077,1077,1.15266947,-0.0578003825,4.43743909,38,33.9509862,23.8524344,0.0216606498,278,0.994848485,5,147.6813,454.966952,224.100528,244.597069,0.92,1071.34585,5,-10.5416667,11.1899038,16.8960485,44.9428802,0.375944943,1.85065286,0.982784016
2009_v1_06090850_ECG,1290,1590,1079.3777,1078.5,1085,1.16766549,-0.0829729844,4.37469445,40,34.1711208,23.7386492,0.0216606498,278,0.995151515,5,149.892828,456.518803,234.967224,242.827642,0.97,1084.2065,5,-11.3541667,10.9158654,16.8133409,45.3060984,0.371105469,1.89187158,0.995620041
2009_v1_06090850_ECG,1295,1595,1080.08664,1079,1065,1.17791276,-0.0980662958,4.32969738,40.25,34.3207336,23.697138,0.018115942,277,0.995454545,5,149.920244,467.118111,245.328218,232.323945,1.06,1094.69052,5,-11.3809524,11.3820755,16.7866318,45.541569,0.368600209,1.90726227,1.0071831
2009_v1_06090850_ECG,1300,1600,1080.89209,1079.5,1065,1.2110208,-0.102873762,4.18946701,41,34.7997242,23.9867593,0.0216606498,278,0.995454545,5,159.975692,480.220056,251.529787,234.373242,1.07,1126.09878,5,-11.2714286,11.4929907,16.9918961,46.1878455,0.367886744,1.90844996,0.98600959
2009_v1_06090850_ECG,1305,1605,1081.7148,1080,1065,1.24021909,-0.119409976,4.08127897,43,35.2167445,23.9197784,0.0217391304,277,0.995454545,5,167.220245,498.870311,247.780329,240.843974,1.03,1154.71486,5,-11.3701923,11.6214953,16.9432866,46.8333559,0.361778187,1.93863739,0.979697922
2009_v1_06090850_ECG,1310,1610,1082.08273,1081,1065,1.24859602,-0.129711839,4.04656906,44,35.3354782,24.3000201,0.0252707581,278,0.995454545,5,176.680694,501.962078,239.089364,245.633243,0.97,1163.36538,5,-11.1839623,11.7099057,17.2137474,46.9135262,0.366925038,1.93009838,0.981742185
2009_v1_06090850_ECG,1315,1615,1082.96751,1082,1065,1.3053359,-0.0993700399,3.9241825,44.25,36.1294326,24.4508528,0.0289855072,277,0.995454545,5,190.286124,512.279609,256.587739,257.434749,1,1216.58822,5,-11.46875,11.7336449,17.3184273,48.0701973,0.360273689,1.92980731,0.96433177
2009_v1_06090850_ECG,1320,1620,1084.40217,1083,1065,1.34114312,-0.111759943,3.8838948,45,36.621621,24.5391709,0.0290909091,276,0.995454545,5,190.110126,537.536083,264.543489,256.962284,1.03,1249.15198,5,-11.4206731,11.4457547,17.3815021,48.7869822,0.356273361,1.95461119,0.949907922
2009_v1_06090850_ECG,1325,1625,1086.1087,1083.5,1085,1.38848996,-0.126550767,3.78133569,47.5,37.2624471,24.5799623,0.0290909091,276,0.995757576,5,197.452942,579.190897,264.581856,253.668157,1.04,1294.89385,5,-11.1553398,11.7056075,17.4113022,49.7375761,0.350063343,1.98199114,0.942746347
2009_v1_06090850_ECG,1330,1630,1087.04348,1085,1085,1.37868174,-0.167628505,3.82753051,48.5,37.1306038,24.6847763,0.0290909091,276,0.995757576,5,189.204858,582.817439,256.990238,256.881805,1,1285.89434,5,-11.315534,11.7266355,17.4858183,49.5137318,0.353150887,1.9725124,0.93760012
2009_v1_06090850_ECG,1335,1635,1088.69203,1085.5,1085,1.43190845,-0.143968437,3.83649112,51,37.8405661,25.2593817,0.0363636364,276,0.995757576,5,195.84327,591.103231,286.357159,260.477499,1.1,1333.78116,5,-11.4471154,11.8018868,17.8931029,50.4346484,0.354777985,1.98925458,0.91448827
2009_v1_06090850_ECG,1340,1640,1089.81091,1087,1085,1.43050426,-0.202256822,3.87355246,50,37.8220076,25.3214372,0.0364963504,275,0.995454545,5,190.333296,592.692387,284.419458,265.572809,1.07,1333.01795,5,-11.7058824,11.9018692,17.936757,50.3912817,0.35594961,2.04478461,0.923812099
2009_v1_06090850_ECG,1345,1645,1090.88364,1088,1085,1.41167984,-0.251287302,3.97735808,50,37.5723281,25.6581969,0.0364963504,275,0.995757576,5,175.498502,597.049432,267.497035,272.485278,0.98,1312.53025,5,-11.8082524,11.9433962,18.1759277,49.9299042,0.364028892,2.05191279,0.921978443
2009_v1_06090850_ECG,1350,1650,1091.76,1089,1059,1.43046774,-0.272147895,3.92695714,51.75,37.8215248,25.9415401,0.0401459854,275,0.996060606,5,182.605814,603.081127,272.007217,273.341781,1,1331.03594,5,-11.8932039,12.1816038,18.3767686,50.2317614,0.365839621,2.07477155,0.90572345
2009_v1_06090850_ECG,1355,1655,1092.06545,1089,1095,1.4270103,-0.29334383,3.95227045,51.5,37.7757898,25.8861206,0.0401459854,275,0.996060606,5,176.751462,602.964963,273.523399,273.856578,1,1327.0964,5,-11.8228155,12.0872642,18.3376311,50.1772048,0.365457407,2.02082221,0.901567826
2009_v1_06090850_ECG,1360,1660,1092.81752,1089.5,1095,1.40562226,-0.33461409,4.0815955,50,37.4916291,26.0709795,0.0402930403,274,0.996363636,5,156.38608,591.963198,277.065,279.137738,0.99,1304.55202,5,-11.9044118,11.7995283,18.4685167,49.7006882,0.371594787,2.01924609,0.912068272
2009_v1_06090850_ECG,1365,1665,1093.20364,1091,1095,1.38431605,-0.348423163,4.16525703,48.75,37.2063979,26.3071415,0.0437956204,275,0.996666667,5,133.256882,588.683252,275.093811,285.28355,0.96,1282.31749,5,-11.6887255,11.6985981,18.6359384,49.2070512,0.378724958,2.04679769,0.930214248
2009_v1_06090850_ECG,1370,1670,1094.35766,1092,1095,1.38275073,-0.399826773,4.22873502,47,37.1853564,26.6340689,0.0476190476,274,0.996666667,5,127.104464,575.926176,287.321656,290.753258,0.99,1281.10555,5,-11.8602941,11.7216981,18.8671389,49.0869894,0.384361298,2.02079527,0.908568163
2009_v1_06090850_ECG,1375,1675,1095.34672,1095,1095,1.36355334,-0.451701299,4.35300188,47,36.9263231,26.7083694,0.0476190476,274,0.996666667,5,116.951297,575.510449,279.783367,291.09025,0.96,1263.33536,5,-11.6407767,11.8190476,18.9201598,48.673753,0.388713806,1.96419961,0.902662717
2009_v1_06090850_ECG,1380,1680,1096.01465,1095,1095,1.36398508,-0.493607226,4.39505673,47,36.9321686,26.7090809,0.0477941176,273,0.996363636,5,114.47243,578.836363,280.634391,290.827045,0.96,1264.77023,5,-11.657767,12.1778846,18.9206061,48.6824488,0.388653542,1.96978259,0.898532785
2009_v1_06090850_ECG,1385,1685,1097.21533,1096,1095,1.37386921,-0.521235702,4.4183631,48,37.0657418,26.6782484,0.0476190476,274,0.996363636,5,116.960426,582.757134,282.499183,292.392637,0.97,1274.60938,5,-12.0509709,12.1380952,18.8980402,48.893788,0.386512089,1.96166475,0.899167329
2009_v1_06090850_ECG,1390,1690,1097.5641,1096,1087,1.37684238,-0.529358018,4.42657754,47.25,37.1058268,26.7863277,0.0514705882,273,0.996060606,5,108.426952,589.632995,289.56768,288.822815,1,1276.45044,5,-12.3564356,12.0330189,18.97565,48.9245283,0.387855553,1.98679678,0.890997543
2009_v1_06090850_ECG,1395,1695,1097.7326,1097,1087,1.3780275,-0.540054181,4.42958974,47.25,37.1217928,26.8413777,0.0514705882,273,0.995757576,5,97.3936118,599.731011,282.883947,296.178297,0.96,1276.18687,5,-12.4628713,12.3254717,19.0144346,48.9336926,0.388575511,2.01018603,0.889024257
2009_v1_06090850_ECG,1400,1700,1097.97802,1097,1087,1.37719069,-0.553181719,4.44549193,47.5,37.11052,26.8234972,0.0514705882,273,0.995454545,5,96.6760756,596.166235,285.481846,297.248042,0.96,1275.5722,5,-12.5490196,12.4761905,19.0018328,48.9214854,0.388414878,2.06939832,0.900799653
2009_v1_06090850_ECG,1405,1705,1098.5348,1098,1087,1.36153647,-0.586170909,4.56138795,47,36.8990036,26.7077732,0.0477941176,273,0.995151515,5,89.6673482,589.869812,287.086517,294.810336,0.97,1261.43401,5,-12.6732673,12.6775701,18.9200503,48.6323414,0.389042553,2.12349361,0.911954236
2009_v1_06090850_ECG,1410,1710,1099.41758,1099,1080,1.3831044,-0.605534934,4.51594049,47,37.1901115,27.2836409,0.0551470588,273,0.994848485,5,91.6196409,589.919465,294.358147,304.979324,0.97,1280.87658,5,-12.5392157,12.6495327,19.327872,48.9146415,0.395134697,2.12732411,0.899184855
2009_v1_06090850_ECG,1415,1715,1099.7326,1100,1080,1.38121132,-0.630123378,4.55009211,47,37.1646515,27.5176414,0.0551470588,273,0.994848485,5,80.3167013,588.415436,296.152422,314.114418,0.94,1278.99898,5,-12.7128713,12.4421296,19.4937216,48.810014,0.399379554,2.16303321,0.903948996
2009_v1_06090850_ECG,1420,1720,1099.45055,1099,1080,1.39566758,-0.611134495,4.45484699,47,37.3586346,27.587761,0.0551470588,273,0.994848485,5,67.9851802,603.515534,301.015988,317.253264,0.95,1289.76997,5,-13.1642157,12.6752336,19.5432847,49.0855904,0.398147083,2.18168116,0.905826052
2009_v1_06090850_ECG,1425,1725,1099.54212,1099,1080,1.39274914,-0.618625246,4.47792753,47.25,37.3195544,27.650258,0.0551470588,273,0.994848485,5,59.5797869,614.059621,297.046945,315.270985,0.94,1285.95734,5,-13.125,12.817757,19.5877138,49.008364,0.399681038,2.21238064,0.904921808
2009_v1_06090850_ECG,1430,1730,1100.75092,1101,1080,1.39804802,-0.654512354,4.55995978,46.25,37.3904804,27.9777354,0.0588235294,273,0.994848485,5,52.3852228,596.28232,321.115733,320.426626,1,1290.2099,5,-13.1917476,13.3537736,19.8196063,49.0232522,0.404289912,2.21516228,0.900404786
2009_v1_06090850_ECG,1435,1735,1101.72426,1103,1080,1.40400118,-0.672098287,4.61362836,48,37.4700037,28.3888393,0.0627306273,272,0.994545455,5,45.88929,577.892055,336.961632,335.296571,1,1296.03955,5,-13.125,13.4009434,20.1109064,49.0260523,0.410208563,2.22147446,0.896923358
2009_v1_06090850_ECG,1440,1740,1103.61255,1104,1080,1.35843821,-0.688132877,4.91494684,48,36.8569968,28.7966047,0.0666666667,271,0.994242424,5,34.2198373,544.96497,327.161785,343.898163,0.95,1250.24475,5,-13.0048544,13.6153846,20.3995199,47.9659881,0.42529135,2.22427577,0.904311778
2009_v1_06090850_ECG,1445,1745,1104.77941,1105.5,1080,1.33506555,-0.748155597,5.12675662,47,36.5385489,28.9251483,0.0664206642,272,0.993939394,5,30.7472909,539.90519,307.468775,350.060806,0.88,1228.18206,5,-13.0471698,13.1730769,20.490817,47.4368794,0.431959633,2.25216027,0.926362355
2009_v1_06090850_ECG,1450,1750,1105.17712,1106,1080,1.33651666,-0.770660808,5.16060069,47,36.5584007,29.3395195,0.0703703704,271,0.993636364,5,24.1422838,545.606655,298.259255,362.78431,0.82,1230.7925,5,-12.8018868,13.3033981,20.7846037,47.3395561,0.439053626,2.22427577,0.910296667
2009_v1_06090850_ECG,1455,1755,1104.92647,1106,1080,1.34277686,-0.74962162,5.08592112,48,36.6439198,29.6222839,0.073800738,272,0.993636364,5,22.5217018,548.028383,295.839775,369.704418,0.8,1236.09428,5,-12.8621495,13.0776699,20.98457,47.3835577,0.442866071,2.14548855,0.893462185
2009_v1_06090850_ECG,1460,1760,1105.49077,1106,1080,1.36302862,-0.764149282,5.01831364,48.75,36.9192175,29.7596545,0.0777777778,271,0.993939394,5,26.9822528,545.628987,308.81264,374.233039,0.83,1255.65692,5,-12.9646226,13.3052885,21.082015,47.7661583,0.441358814,2.19270931,0.883685771
2009_v1_06090850_ECG,1465,1765,1106.12546,1107,1142,1.37559902,-0.783165592,4.9996393,49.75,37.0890687,29.8052941,0.0777777778,271,0.993939394,5,29.9358984,552.101857,308.094124,378.189295,0.81,1268.32117,5,-13.2428571,13.6785714,21.1139529,48.0145709,0.439740531,2.23958026,0.90859844
2009_v1_06090850_ECG,1470,1770,1106.83395,1107,1142,1.3618427,-0.819848716,5.13169217,50.5,36.9031529,30.0062956,0.0851851852,271,0.993636364,5,26.0150059,549.859529,294.91895,384.964191,0.77,1255.75768,5,-13.2383178,13.6359223,21.2567431,47.6637836,0.445972633,2.28116387,0.919935366
2009_v1_06090850_ECG,1475,1775,1107.08487,1107,1142,1.37886314,-0.813603562,5.05189327,51.5,37.1330465,30.5391067,0.0851851852,271,0.993939394,5,24.5213851,549.402796,292.231982,405.331395,0.72,1271.48756,5,-13.1682243,13.5558252,21.6343858,47.850597,0.452123633,2.25548486,0.912294694
2009_v1_06090850_ECG,1480,1780,1107.46863,1107,1142,1.37968698,-0.825477623,5.08347509,50.75,37.1441378,30.5147809,0.0888888889,271,0.994242424,5,25.9582519,545.669816,300.022776,401.294117,0.75,1272.94496,5,-13.2337963,13.6495098,21.6170596,47.8756377,0.451525257,2.19270931,0.901973812
2009_v1_06090850_ECG,1485,1785,1108.47601,1108,1142,1.39399109,-0.823086972,5.11519468,52.5,37.3361901,31.0360603,0.0925925926,271,0.994545455,5,28.2980607,542.808957,301.041038,412.695096,0.73,1284.84315,5,-13.3060748,13.9490291,21.986402,48.0060445,0.457992368,2.19562052,0.896554825
2009_v1_06090850_ECG,1490,1790,1109.01476,1110,1142,1.4190146,-0.816134709,5.02714386,53.5,37.6698101,31.317431,0.0962962963,271,0.994848485,5,32.5112315,550.877085,301.540575,422.65344,0.71,1307.58233,5,-13.1643519,14.1887255,22.1858225,48.4336502,0.45806629,2.1897896,0.894675893
2009_v1_06090850_ECG,1495,1795,1109.12546,1111,1142,1.45153235,-0.812240179,4.86137223,55,38.0989809,31.9297841,0.1,271,0.994848485,5,30.5413953,557.515984,300.155812,447.975905,0.67,1336.1891,5,-13.5763889,13.8762136,22.6192825,48.9022776,0.462540471,2.26026286,0.895621707
2009_v1_06090850_ECG,1500,1800,1108.5963,1110,1142,1.47537917,-0.782112759,4.72072567,56,38.4106648,32.0191044,0.100371747,270,0.994848485,5,25.3038115,571.548093,304.23067,454.545057,0.67,1355.62763,5,-13.6799065,14.1960784,22.6802575,49.3595407,0.459490854,2.24833021,0.888762979
2009_v1_06090850_ECG,1505,1805,1107.67897,1108,1080,1.47198174,-0.753648155,4.63821507,55,38.3664142,32.0183397,0.103703704,271,0.994848485,5,24.9059574,579.736113,304.639382,443.936052,0.69,1353.21751,5,-13.8142202,14.5470297,22.6821735,49.2897808,0.460180043,2.24835795,0.886928561
2009_v1_06090850_ECG,1510,1810,1107.32103,1108,1087,1.44979656,-0.774102391,4.69332747,53.75,38.0761941,32.1536819,0.103703704,271,0.994545455,5,34.9164992,550.863555,308.260034,439.131916,0.7,1333.172,5,-13.8060748,14.8627451,22.7780895,48.7929478,0.466831592,2.26321707,0.893652546
2009_v1_06090850_ECG,1515,1815,1107.77491,1109,1087,1.48172322,-0.747392857,4.58853968,55,38.4931581,32.4408293,0.103703704,271,0.994545455,5,46.7173816,562.516457,308.260535,445.951142,0.69,1363.44551,5,-14.1009615,14.702381,22.9815753,49.3486944,0.465697736,2.38132781,0.900997539
2009_v1_06090850_ECG,1520,1820,1108.53137,1110,1087,1.49623512,-0.760189096,4.58560317,56,38.6811986,32.5089162,0.107407407,271,0.994545455,5,45.9957849,580.572876,293.951186,455.428542,0.65,1375.94839,5,-14.1432039,14.3985849,23.028642,49.6200755,0.464099294,2.33312936,0.886657168
2009_v1_06090850_ECG,1525,1825,1108.95185,1111,1087,1.50188243,-0.78131224,4.59860082,56,38.7541279,32.5866874,0.111524164,270,0.994545455,5,41.0921601,590.142089,282.858307,468.498669,0.6,1382.59123,5,-13.8514851,14.567757,23.0851831,49.7075365,0.464420181,2.29512237,0.879186974
2009_v1_06090850_ECG,1530,1830,1107.37638,1110,1087,1.54553929,-0.80657926,4.58509752,55,39.3133475,33.2211445,0.118518519,271,0.994545455,5,48.9595073,585.790056,302.075881,487.777608,0.62,1424.60305,5,-14.2694175,14.0400943,23.5338431,50.3709918,0.46721024,2.25810884,0.859781012
2009_v1_06090850_ECG,1535,1835,1104.73063,1107,1087,1.80946421,-0.953784506,4.73976604,57,42.5377974,33.3544933,0.122222222,271,0.994545455,5,61.1996443,744.592701,359.473459,519.126416,0.69,1684.39222,5,-14.5291262,14.0424528,23.6271915,55.3234511,0.427073709,1.96664605,0.978291225
2009_v1_06090850_ECG,1540,1840,1103.77941,1107,1087,1.84497699,-0.914987154,4.56944272,57,42.9531954,33.5131741,0.125461255,272,0.994545455,5,72.1160975,806.4581,345.032432,494.80266,0.7,1718.40929,5,-14.3365385,14.3867925,23.7408009,55.9135794,0.424598123,1.97183913,0.973339746
2009_v1_06090850_ECG,1545,1845,1103.32353,1106,1087,1.85687649,-0.886333479,4.48749211,57.5,43.0914898,33.4590128,0.125461255,272,0.994848485,5,78.668964,809.071932,345.589581,495.052405,0.7,1728.38288,5,-14.4828431,14.3472222,23.7023134,56.1422597,0.422183102,1.97417831,0.977216009
2009_v1_06090850_ECG,1550,1850,1103.43015,1105,1087,1.84626079,-0.894665296,4.54068206,57,42.9681369,33.2329917,0.125461255,272,0.995151515,5,75.3197483,802.395725,355.290129,486.29384,0.73,1719.29944,5,-14.7427184,14.5186916,23.54253,56.0202718,0.420250192,1.91788342,0.97315955
2009_v1_06090850_ECG,1555,1855,1103.42647,1105.5,1087,1.84951487,-0.895035112,4.52782638,56,43.0059864,33.2418733,0.129151292,272,0.994848485,5,74.46675,759.712115,384.961862,503.359648,0.76,1722.50037,5,-15.1370192,15.0754717,23.5465526,56.0766404,0.419899488,1.93178376,0.981781081
2009_v1_06090850_ECG,1560,1860,1106.05904,1107,1087,1.53780391,-0.646995693,4.10739275,55.75,39.214843,33.1812642,0.125925926,271,0.994545455,5,42.0507314,604.996709,245.706609,511.045796,0.48,1403.79984,5,-15.7547619,15.1394231,23.503356,50.231465,0.467901067,2.1647883,0.851522225
2009_v1_06090850_ECG,1565,1865,1107.51661,1108,1087,1.5001988,-0.689088321,4.27051741,55.75,38.7323998,33.3293887,0.133333333,271,0.994545455,5,30.5053028,587.193245,251.745713,503.643833,0.5,1373.08809,5,-16.0911215,15.1568627,23.6107281,49.4260166,0.477698381,2.27370978,0.878057046
2009_v1_06090850_ECG,1570,1870,1108.35793,1110,1087,1.50532696,-0.71627569,4.30032383,56,38.7985433,33.450018,0.137037037,271,0.994545455,5,25.8313052,585.055269,257.448519,510.110118,0.5,1378.44521,5,-15.8632075,15.6286408,23.6966295,49.4886217,0.478829854,2.1647883,0.856610082
2009_v1_06090850_ECG,1575,1875,1109.42222,1111.5,1087,1.52564263,-0.742813345,4.31266395,57,39.0594755,33.8067986,0.141263941,270,0.994545455,5,21.158135,592.247674,261.070793,523.391973,0.5,1397.86858,5,-15.5660377,15.9044118,23.9491198,49.7767507,0.481130637,2.16159098,0.853977335
2009_v1_06090850_ECG,1580,1880,1110.18148,1113,1087,1.5327662,-0.772989482,4.3416008,56,39.1505581,34.5142608,0.148698885,270,0.994242424,5,22.7920915,587.502979,248.366123,545.490143,0.46,1404.15134,5,-15.6674528,15.3970588,24.450676,49.6759181,0.492203807,2.16403696,0.835176777
2009_v1_06090850_ECG,1585,1885,1110.58148,1113,1087,1.55913646,-0.775512596,4.25365523,57,39.485902,34.8561036,0.152416357,270,0.993939394,5,21.7225549,587.82165,254.868932,565.34858,0.45,1429.76172,5,-15.754717,15.6658416,24.6923342,50.0855423,0.493003231,2.15990889,0.818362667
2009_v1_06090850_ECG,1590,1890,1110.94444,1113,1087,1.57637237,-0.773129984,4.21016977,58,39.7035561,35.2485598,0.159851301,270,0.993636364,5,19.5763098,593.761872,248.478787,583.578277,0.43,1445.39525,5,-15.7952381,15.9534314,24.9709394,50.2911217,0.496527788,2.09259811,0.809969273
2009_v1_06090850_ECG,1595,1895,1111.20741,1113.5,1087,1.58150329,-0.780639289,4.21003094,57,39.768119,35.3868163,0.163568773,270,0.993333333,5,19.3491826,599.309161,242.24539,588.638732,0.41,1449.54247,5,-15.4423077,16.026699,25.0685378,50.3445627,0.49793933,2.09204638,0.814548611
2009_v1_06090850_ECG,1600,1900,1110.78148,1113,1087,1.58624575,-0.757080755,4.1603145,57,39.8277008,35.5561235,0.167286245,270,0.993333333,5,18.8905341,595.524879,247.592171,591.65039,0.42,1453.65797,5,-15.6826923,15.8907767,25.1888302,50.3787092,0.499989592,2.06868392,0.819370311
2009_v1_06090850_ECG,1605,1905,1110.05926,1113,1087,1.60818978,-0.721402868,4.04104349,59,40.1022416,35.6631285,0.167286245,270,0.993333333,5,19.5170798,601.075373,254.028356,599.856822,0.42,1474.47763,5,-15.8190476,16.129902,25.2646171,50.774784,0.497581972,1.85966655,0.949029352
2009_v1_06090850_ECG,1610,1910,1110.14074,1113,1087,1.61563811,-0.726646023,4.0175919,59,40.1950011,35.6585939,0.167286245,270,0.993030303,5,21.0526289,602.649089,258.503401,597.789707,0.43,1479.99483,5,-15.5566038,16.3935644,25.2608867,50.9231168,0.496059321,1.94327836,0.959253636
2009_v1_06090850_ECG,1615,1915,1110.03333,1113,1087,1.6095119,-0.724559471,4.03649615,58,40.1187225,35.6603661,0.167286245,270,0.992727273,5,15.6033615,598.328398,261.174483,599.838541,0.44,1474.94478,5,-15.8207547,16.2252475,25.2623575,50.8019398,0.497271514,2.00865169,0.971343208
2009_v1_06090850_ECG,1620,1920,1109.99631,1113,1087,1.60773702,-0.717287051,4.03500458,57.75,40.0965962,35.8398185,0.17037037,271,0.992727273,5,10.2207671,600.526612,256.291048,605.454223,0.42,1472.49265,5,-15.9275701,16.9777228,25.3896292,50.7034592,0.500747476,1.99894699,0.964698864
2009_v1_06090850_ECG,1625,1925,1109.95556,1112.5,1087,1.62734374,-0.681219594,3.99984239,58,40.3403488,36.2163573,0.178438662,270,0.992727273,5,6.17692128,621.833322,248.109018,611.994362,0.41,1488.11362,5,-16.2570755,17.200495,25.6562405,50.9553217,0.503504632,2.00869737,0.958985459
2009_v1_06090850_ECG,1630,1930,1110.78519,1112.5,1087,1.69754476,-0.60430532,3.92645554,58,41.2012714,36.3767461,0.182156134,270,0.993030303,5,10.529791,658.941396,255.266476,624.077454,0.41,1548.81512,5,-16.347619,17.1593137,25.7701883,52.2588453,0.493125865,2.06675688,0.947206645
2009_v1_06090850_ECG,1635,1935,1110.17778,1112,1087,1.67318761,-0.617112395,3.95083827,58,40.904616,36.2337003,0.178438662,270,0.993030303,5,8.23195746,653.139954,233.676537,632.492298,0.37,1527.54075,5,-16.567757,17.04,25.6685269,51.8411221,0.495138335,2.06429632,0.947939239
2009_v1_06090850_ECG,1640,1940,1110.08519,1112,1087,1.67666558,-0.60622976,3.93228168,58,40.9471071,36.3680586,0.178438662,270,0.993333333,5,8.6162888,650.839167,234.09642,636.259206,0.37,1529.81108,5,-16.364486,17.2275,25.7639046,51.8608945,0.496788667,2.11973325,0.958644398
2009_v1_06090850_ECG,1645,1945,1110.32593,1111.5,1087,1.68186364,-0.61181656,3.92887421,58,41.0105308,36.2227721,0.178438662,270,0.993333333,5,10.3188068,650.739789,238.479233,637.972451,0.37,1537.51028,5,-16.5636792,17.3341584,25.6609532,52.0119482,0.493366507,2.10022203,0.964858441
2009_v1_06090850_ECG,1650,1950,1110.21852,1111.5,1087,1.67782196,-0.610017596,3.93819114,58,40.9612251,36.2801471,0.178438662,270,0.993333333,5,12.144109,652.074721,231.020944,638.727436,0.36,1533.96721,5,-16.6547619,17.6004902,25.70159,51.9140847,0.495079324,2.09716907,0.96905811
2009_v1_06090850_ECG,1655,1955,1110.92222,1112,1087,1.69877831,-0.628409266,3.90543235,58,41.2162385,36.6479281,0.185873606,270,0.993030303,5,16.7596271,652.258142,233.53136,649.770412,0.36,1552.31954,5,-16.5048077,17.6796117,25.9614878,52.1877168,0.497463568,2.08716899,0.965183499
2009_v1_06090850_ECG,1660,1960,1110.92963,1112.5,1087,1.69981287,-0.629062429,3.90187321,58,41.228787,36.7814302,0.185873606,270,0.992424242,5,13.8543,646.664819,240.255432,650.606957,0.37,1551.38151,5,-16.5240385,17.8907767,26.0563814,52.1602409,0.499544883,2.09514588,0.961070294
2009_v1_06090850_ECG,1665,1965,1111.67407,1114,1087,1.68780416,-0.668447972,3.98100369,59,41.0828937,36.91168,0.185873606,270,0.992424242,5,16.876513,635.08286,237.184092,652.74565,0.36,1541.88912,5,-16.8966346,17.6960784,26.1490787,51.8828874,0.504001994,2.01620679,0.951707038
2009_v1_06090850_ECG,1670,1970,1111.64074,1114,1087,1.68716042,-0.668348217,3.9797583,58,41.0750583,36.8859893,0.185873606,270,0.992121212,5,18.6132888,635.144062,236.278407,651.112913,0.36,1541.14867,5,-16.9410377,17.775,26.1306303,51.8797744,0.503676637,1.98582471,0.935693929
2009_v1_06090850_ECG,1675,1975,1111.22593,1114,1087,1.7381904,-0.63275068,3.79427998,59,41.6916107,37.30847,0.189591078,270,0.991818182,5,13.6308156,637.632327,269.929892,664.805407,0.41,1585.99844,5,-17.4547619,18.0445545,26.4300452,52.7051565,0.501469817,1.97618776,0.916362306
2009_v1_06090850_ECG,1680,1980,1110.0369,1112,1087,1.80249493,-0.582234583,3.56609204,60.75,42.4557997,37.3825568,0.188888889,271,0.992121212,5,4.35184845,678.847666,296.941434,663.796752,0.45,1643.9377,5,-17.0919811,18.2029703,26.4813237,53.8862631,0.491429952,1.95211795,0.891799031
2009_v1_06090850_ECG,1685,1985,1108.7037,1111.5,1087,1.84046207,-0.529541633,3.41519306,63,42.9006068,37.3593521,0.189591078,270,0.991818182,5,1.65175002,738.404993,279.048826,657.139191,0.42,1676.24476,5,-17.2548077,17.9583333,26.4651576,54.5941349,0.484761919,2.00186925,0.893665747
2009_v1_06090850_ECG,1690,1990,1107.87085,1111,1087,1.87877955,-0.501815431,3.30154846,65.25,43.3448908,37.093126,0.185185185,271,0.992121212,5,2.43994539,797.869689,260.909119,650.354768,0.4,1711.57352,5,-17.5738095,18.1862745,26.2762756,55.3815533,0.474458986,2.03039168,0.895979209
2009_v1_06090850_ECG,1695,1995,1107.09963,1108,1154,1.92942337,-0.475329457,3.17390553,66.5,43.925202,36.8391901,0.185185185,271,0.992424242,5,9.55962077,845.53887,263.065243,642.050953,0.41,1760.21469,5,-17.6816038,18.1361386,26.0961883,56.3722955,0.46292577,2.00456528,0.869644144
2009_v1_06090850_ECG,1700,2000,1106.08824,1107,1154,1.97318038,-0.431291133,3.04184688,69,44.420495,36.7742189,0.184501845,272,0.992424242,5,20.9498006,880.598145,273.816228,625.092484,0.44,1800.45666,5,-17.7380952,17.9199029,26.051299,57.1637173,0.455731366,1.96783032,0.867461648
2009_v1_06090850_ECG,1705,2005,1105.16236,1105,1154,2.03458836,-0.396551473,2.90462935,70.75,45.1064115,36.4932769,0.181481481,271,0.992424242,5,35.4501834,915.421584,283.443481,622.635353,0.46,1856.9506,5,-18.1214286,17.8897059,25.8506776,58.3174003,0.443275548,1.97643593,0.878175892
2009_v1_06090850_ECG,1710,2010,1103.68015,1104.5,1154,2.05881614,-0.339512568,2.8139285,72.5,45.3741792,36.2798166,0.177121771,272,0.992727273,5,53.824742,948.674603,266.781026,609.946353,0.44,1879.22672,5,-17.8428571,17.4757282,25.7011565,58.7969627,0.437117078,2.01038994,0.879178095
2009_v1_06090850_ECG,1715,2015,1102.31618,1103.5,1154,2.21085907,-0.402294654,2.8973882,74,47.0197732,36.5491127,0.184501845,272,0.992727273,5,93.4125969,1011.5696,286.830431,635.394371,0.45,2027.207,5,-17.9313725,16.9716981,25.8903439,61.2487407,0.422708183,1.88398187,0.997435708
2009_v1_06090850_ECG,1720,2020,1101.10662,1103.5,1154,2.38490741,-0.482741677,2.98460484,74.5,48.8355138,36.6066153,0.184501845,272,0.992727273,5,155.673041,1111.61788,332.422884,615.426007,0.54,2215.13982,5,-17.6568627,16.7075472,25.932444,64.0103364,0.405129006,1.86773364,0.975434153
2009_v1_06090850_ECG,1725,2025,1100.98901,1103,1154,2.38056238,-0.476418669,2.98083123,75,48.7910072,36.6191649,0.183823529,273,0.992424242,5,169.756761,1119.35448,313.332781,610.489005,0.51,2212.93302,5,-17.7791262,16.4056604,25.9412876,63.9388329,0.40572038,1.91042008,0.990177221
2009_v1_06090850_ECG,1730,2030,1099.94118,1101.5,1154,2.37594487,-0.436239594,2.94720438,76,48.7436649,36.2509702,0.177121771,272,0.992121212,5,181.594348,1099.31877,319.102944,606.709329,0.53,2206.72539,5,-17.4684466,16.2738095,25.6794016,63.9723227,0.401414245,1.90599714,0.987800511
2009_v1_06090850_ECG,1735,2035,1099.22711,1099,1154,2.35005117,-0.417525088,2.96031192,74.25,48.4773264,36.1462511,0.180147059,273,0.992424242,5,186.613991,1072.93447,328.032823,594.828404,0.55,2182.40968,5,-17.0785714,16.15,25.6061819,63.5958001,0.402639512,1.93412475,0.999084726
2009_v1_06090850_ECG,1740,2040,1098.18613,1097,1154,2.30997622,-0.390651313,2.9815379,75,48.0622119,35.9188646,0.175824176,274,0.992727273,5,190.253102,1045.0859,323.047299,585.395314,0.55,2143.78161,5,-16.9441748,15.7986111,25.4450599,63.0277824,0.403711807,1.92587202,1.01085292
2009_v1_06090850_ECG,1745,2045,1097.50549,1095,1154,2.30283177,-0.362001289,2.98112053,74.25,47.9878294,35.9008541,0.176470588,273,0.993030303,5,189.595677,1052.06165,306.159809,586.608063,0.52,2134.4252,5,-16.9387255,15.1926606,25.4321845,62.9195322,0.404201742,1.93419164,1.00484274
2009_v1_06090850_ECG,1750,2050,1097.21168,1094.5,1087,2.28799898,-0.349024681,2.99752748,74,47.8330324,35.5765696,0.172161172,274,0.993030303,5,199.605269,1043.14196,301.150044,577.130065,0.52,2121.02734,5,-16.8846154,15.4953704,25.2025144,62.7760403,0.401467094,1.92587202,1.01052535
2009_v1_06090850_ECG,1755,2055,1096.95604,1094,1154,2.29024071,-0.335930499,2.99258762,74,47.8564594,35.1821416,0.165441176,273,0.992727273,5,211.97656,1040.46639,306.034318,566.22269,0.54,2124.69996,5,-16.8228155,15.7990654,24.9230059,62.923169,0.396086311,1.92158048,1.00446697
2009_v1_06090850_ECG,1760,2060,1095.85766,1092,1154,2.26791007,-0.28906513,3.00132439,73,47.6225794,35.1221834,0.164835165,274,0.992727273,5,218.8945,1010.03982,312.330534,559.772908,0.56,2101.03776,5,-16.3891509,16.0142857,24.880667,62.5841238,0.397555571,1.86231016,0.988200843
2009_v1_06090850_ECG,1765,2065,1095.19708,1091.5,1154,2.24484014,-0.270282033,3.03053797,74,47.379744,35.031174,0.164835165,274,0.993030303,5,209.020762,1005.54749,307.671389,555.24492,0.55,2077.48456,5,-16.0432692,15.5864486,24.8162624,62.2401269,0.398718057,1.84806435,0.967113919
2009_v1_06090850_ECG,1770,2070,1094.9781,1092,1154,2.23044641,-0.266606416,3.05677967,73,47.2276022,34.8748154,0.161172161,274,0.993333333,5,199.594733,1012.33952,304.70734,547.185735,0.56,2063.82732,5,-15.9375,15.5140187,24.7054971,62.0526488,0.398137671,1.86109912,0.964598856
2009_v1_06090850_ECG,1775,2075,1094.81387,1092,1085,2.19706047,-0.273765889,3.12545066,69,46.8728116,34.2861264,0.157509158,274,0.993333333,5,189.919311,1013.19305,304.8395,523.778545,0.58,2031.7304,5,-16.0697115,15.2943925,24.2879786,61.6783189,0.393784705,1.85370796,0.982144045
2009_v1_06090850_ECG,1780,2080,1094.62409,1091.5,1085,2.18534901,-0.272800078,3.14271566,69,46.7477167,34.1858206,0.15018315,274,0.993333333,5,173.42047,1012.84589,307.047906,525.789965,0.58,2019.10423,5,-16.3942308,15.1098131,24.2164628,61.5163471,0.393658985,1.81288597,0.965294052
2009_v1_06090850_ECG,1785,2085,1093.87591,1091,1085,2.13774279,-0.27515231,3.19201269,68,46.2357306,33.6376403,0.146520147,274,0.993333333,5,159.018743,981.244413,324.491614,510.640861,0.64,1975.39563,5,-16.0048077,14.7897196,23.8287191,60.8907031,0.391335917,2.09372774,0.865561995
2009_v1_06090850_ECG,1790,2090,1093.44161,1091,1085,2.09944896,-0.283871088,3.249531,65,45.8197442,33.2387853,0.142857143,274,0.993333333,5,143.362209,972.046884,329.616445,495.316773,0.67,1940.34231,5,-15.8039216,14.3692661,23.54646,60.3693808,0.390039779,2.08721745,0.873201698
2009_v1_06090850_ECG,1795,2095,1093.60584,1091.5,1085,2.07606385,-0.302660921,3.30906026,65,45.5638437,32.7603687,0.139194139,274,0.993030303,5,128.033019,987.605585,318.672519,484.39743,0.66,1918.70855,5,-15,14.286036,23.2071838,60.1128465,0.386060305,2.12087873,0.884579681
2009_v1_06090850_ECG,1800,2100,1094.39781,1094,1085,2.08452615,-0.336145667,3.30658104,65,45.6566112,32.6347306,0.139194139,274,0.992727273,5,120.337717,1002.79796,321.557705,481.33983,0.67,1926.03321,5,-14.760101,14.1473214,23.1178225,60.287798,0.383457735,2.0780233,0.882053557
2009_v1_06090850_ECG,1805,2105,1095.27007,1094.5,1085,2.09452753,-0.37604757,3.30898212,66,45.7660084,32.3361465,0.135531136,274,0.992727273,5,115.270099,1030.08741,311.8522,478.284776,0.65,1935.49448,5,-14.625,13.3941441,22.9070538,60.533643,0.378418556,2.07208857,0.900008328
2009_v1_06090850_ECG,1810,2110,1094.9708,1094.5,1085,2.07854127,-0.373064543,3.33377782,64,45.5910218,32.1477245,0.135531136,274,0.993030303,5,105.14067,1024.44371,321.866664,471.20265,0.68,1922.65369,5,-14.7727273,13.2388393,22.7735795,60.3195376,0.377548973,2.10430219,0.897339292
2009_v1_06090850_ECG,1815,2115,1094.41241,1094,1085,2.03821391,-0.382227967,3.38696888,63,45.1465825,32.1608822,0.135531136,274,0.993333333,5,81.8855956,985.461479,346.021679,469.889789,0.74,1883.25854,5,-14.8075,13.3941441,22.7824461,59.6438427,0.38197482,2.07492545,0.897544018
2009_v1_06090850_ECG,1820,2120,1093.92336,1094,1085,2.0051333,-0.386063135,3.43772142,63,44.7787148,32.0591258,0.131868132,274,0.993333333,5,70.3275706,980.180479,339.420968,461.85032,0.73,1851.77934,5,-14.5742574,13.5923423,22.7105714,59.1142668,0.384180885,2.07208857,0.902692588
2009_v1_06090850_ECG,1825,2125,1094.17455,1094,1085,2.01440008,-0.383247012,3.4271978,62.25,44.8820686,32.1554164,0.131386861,275,0.993333333,5,64.2208659,1005.51526,324.896083,464.691885,0.7,1859.32409,5,-14.3058252,13.2522727,22.7788597,59.2446091,0.38448831,2.11111766,0.915338813
2009_v1_06090850_ECG,1830,2130,1094.98175,1094,1085,1.96214252,-0.389250103,3.49128241,59,44.296078,31.6240508,0.124542125,274,0.993333333,5,75.5460019,952.965046,337.970849,446.51334,0.76,1812.99524,5,-14.5220588,13.125,22.4013768,58.5018236,0.382917582,2.06936748,0.903449924
2009_v1_06090850_ECG,1835,2135,1096.9781,1095.5,1085,1.73517168,-0.216147566,3.25560219,58,41.655392,31.40227,0.120879121,274,0.993333333,5,126.027528,799.537859,211.82935,449.428724,0.47,1586.82346,5,-14.3638614,12.6891892,22.2441434,54.5485238,0.40778635,2.10417688,0.920905717
2009_v1_06090850_ECG,1840,2140,1097.67033,1096,1085,1.70139092,-0.22739555,3.31841008,57.75,41.2479202,31.1541471,0.117647059,273,0.993333333,5,148.886579,773.067852,199.283188,436.893534,0.46,1558.13115,5,-14.3661616,12.2209821,22.0699102,53.9972305,0.408723003,2.13268606,0.926588391
2009_v1_06090850_ECG,1845,2145,1098.21245,1097,1085,1.69327087,-0.256686955,3.35239371,55.75,41.1493727,31.0391119,0.117647059,273,0.993333333,5,163.822953,749.050477,206.207024,432.194809,0.48,1551.27526,5,-14.4413265,12.1106195,21.9883842,53.8799843,0.408099305,2.0878929,0.924975908
2009_v1_06090850_ECG,1850,2150,1098.75824,1099,1085,1.70551487,-0.285422492,3.325362,57.5,41.2978797,30.8936744,0.113970588,273,0.993333333,5,174.385583,742.208693,214.019658,432.394831,0.49,1563.00876,5,-14.3324742,11.6951754,21.8843522,54.1489138,0.404151268,2.07460921,0.937358421
2009_v1_06090850_ECG,1855,2155,1098.68864,1099,1085,1.68672991,-0.27530004,3.37503884,57,41.0698175,30.8779619,0.113970588,273,0.993636364,5,183.65654,724.340019,214.729361,422.583909,0.51,1545.30983,5,-14.0729167,11.5782609,21.8736282,53.8052433,0.406533395,2.02950182,0.923646166
2009_v1_06090850_ECG,1860,2160,1097.89051,1096,1085,1.68524072,-0.235547892,3.348673,56,41.0516835,30.887602,0.113553114,274,0.993939394,5,167.439791,732.683557,216.586526,426.217444,0.51,1542.92732,5,-14.0309278,11.5043478,21.880102,53.7749251,0.406882984,1.97927527,0.930415465
2009_v1_06090850_ECG,1865,2165,1096.8022,1095,1085,1.67279161,-0.196180574,3.36452159,56,40.8997752,30.6168206,0.106617647,273,0.993939394,5,142.343702,752.009599,216.602033,419.952028,0.52,1530.90736,5,-13.4381443,11.4736842,21.6881648,53.6209542,0.404471817,1.98917377,0.939391651
2009_v1_06090850_ECG,1870,2170,1096.13139,1094,1085,1.63816582,-0.18391499,3.43957143,56,40.4742613,30.3982118,0.102564103,274,0.993939394,5,124.602083,757.40559,211.855996,404.218347,0.52,1498.08201,5,-13.3324742,11.3652174,21.5341954,53.0340464,0.406044736,1.98268198,0.95141896
2009_v1_06090850_ECG,1875,2175,1095.05109,1092,1085,1.60233438,-0.172249352,3.49592879,55,40.0291691,30.189026,0.0989010989,274,0.993939394,5,100.077537,769.29617,194.207636,400.204251,0.49,1463.78559,5,-13.1623711,11.1913043,21.3857918,52.4148515,0.408010158,1.97889479,0.959161303
2009_v1_06090850_ECG,1880,2180,1094.22628,1091.5,1085,1.57721601,-0.151475324,3.54710481,53,39.714179,29.4378964,0.0915750916,274,0.994242424,5,83.8673242,778.169415,197.10255,380.862139,0.52,1440.00143,5,-13.0459184,11.0986842,20.8537443,52.1493372,0.399885126,1.97288192,0.823028681
2009_v1_06090850_ECG,1885,2185,1093.58545,1091,1085,1.53536037,-0.143640548,3.6584523,52,39.1836748,28.7726426,0.0839416058,275,0.994545455,5,70.2536511,766.881393,207.895067,356.9822,0.58,1402.01231,5,-12.7979798,10.9320175,20.3825511,51.5293349,0.395552381,1.95628369,0.847058711
2009_v1_06090850_ECG,1890,2190,1092.90876,1091,1085,1.49822974,-0.145454329,3.76200393,51,38.7069728,28.4129027,0.0769230769,274,0.994848485,5,57.0597384,756.34927,210.929931,343.906287,0.61,1368.24523,5,-12.525,10.6741071,20.1278527,50.9050982,0.395399545,1.98022987,0.863241877
2009_v1_06090850_ECG,1895,2195,1092.54545,1091,1085,1.4706576,-0.146517165,3.84341556,49.75,38.3491538,28.381139,0.0766423358,275,0.995151515,5,49.8304073,755.6053,192.731425,343.831576,0.56,1341.99871,5,-12.3935644,10.2745536,20.104733,50.3697817,0.399142746,1.98138665,0.876971243
2009_v1_06090850_ECG,1900,2200,1092.02198,1090,1085,1.48746275,-0.130211683,3.79289209,49.25,38.5676386,28.098566,0.0698529412,273,0.995151515,5,43.3828945,770.090507,205.850882,338.128688,0.61,1357.45297,5,-12.0151515,10.2168142,19.9052284,50.7809746,0.391982009,1.93853004,0.874119113
2009_v1_06090850_ECG,1905,2205,1092.24908,1091,1085,1.47360685,-0.139221027,3.85228993,49.25,38.3875871,28.0168673,0.0698529412,273,0.995151515,5,46.1789562,763.984363,201.048778,333.001481,0.6,1344.21358,5,-11.7125,10.0982143,19.8474304,50.5301217,0.392784141,1.91713885,0.879347385
2009_v1_06090850_ECG,1910,2210,1092.00366,1090,1085,1.45567278,-0.133513534,3.92644737,48,38.1532801,27.7035249,0.0661764706,273,0.995454545,5,42.1351468,756.050888,208.151635,320.726132,0.65,1327.0638,5,-11.7875,9.86383929,19.6254349,50.2611964,0.390468916,1.9683022,0.891071004
2009_v1_06090850_ECG,1915,2215,1091.37729,1090,1085,1.42190492,-0.134446513,4.02011196,47.25,37.7081546,27.4423862,0.0625,273,0.995757576,5,35.1873427,733.238031,204.230715,324.429465,0.63,1297.08555,5,-11.6691919,9.67256637,19.4392059,49.6581023,0.39146091,1.97297053,0.906012752
2009_v1_06090850_ECG,1920,2220,1090.70696,1090,1085,1.37953146,-0.148910174,4.13596951,47,37.1420444,27.1509262,0.0588235294,273,0.995757576,5,30.9462739,689.77528,219.942244,317.275132,0.69,1257.93893,5,-11.575,9.5625,19.2330535,48.8789584,0.393483293,1.96163762,0.909813981
2009_v1_06090850_ECG,1925,2225,1089.96703,1089,1085,1.315782,-0.218391269,4.23654837,46.25,36.2737095,26.7473885,0.0514705882,273,0.995757576,5,31.6829783,635.970925,223.677582,310.575135,0.72,1201.90662,5,-11.1377551,9.56798246,18.9469486,47.6715548,0.397447675,1.9287976,0.919128411
2009_v1_06090850_ECG,1930,2230,1089.05474,1089,1085,1.20138527,-0.460116927,4.09959504,44,34.661005,26.4961121,0.0476190476,274,0.995757576,5,40.085115,592.468171,183.952094,288.109143,0.64,1104.61452,5,-11.0382653,9.09782609,18.7699865,45.2819848,0.414513334,1.96904019,0.955857984
2009_v1_06090850_ECG,1935,2235,1088.79121,1089,1085,1.18543051,-0.471998498,4.16815342,44,34.4300815,26.2669413,0.0441176471,273,0.995757576,5,45.8163103,584.829444,179.310015,281.358602,0.64,1091.31437,5,-11.0688776,9.25438596,18.6076554,44.9957352,0.413542646,1.93853004,0.959643219
2009_v1_06090850_ECG,1940,2240,1088.67883,1089,1085,1.16937633,-0.491221646,4.21994399,44,34.1961449,25.9732886,0.043956044,274,0.995454545,5,54.2480621,565.200383,186.050432,272.845308,0.68,1078.34418,5,-10.3333333,9.17982456,18.3995377,44.7237036,0.411404606,1.91223987,0.967004386
2009_v1_06090850_ECG,1945,2245,1088.45055,1089,1085,1.15501317,-0.518800247,4.24809441,44.25,33.9854847,25.7521415,0.0404411765,273,0.995151515,5,68.4286228,540.053609,193.276222,265.352905,0.73,1067.11136,5,-10.4821429,9.22587719,18.2427361,44.4660423,0.410262195,1.87219557,0.971405203
2009_v1_06090850_ECG,1950,2250,1088.24088,1089,1085,1.13381722,-0.539108312,4.33420135,43,33.6722025,25.671352,0.0402930403,274,0.994848485,5,82.9070307,516.712434,186.154673,263.778991,0.71,1049.55313,5,-10.3611111,9.29605263,18.1855997,44.0104353,0.413211085,1.86336519,0.978550779
2009_v1_06090850_ECG,1955,2255,1087.58759,1089,1085,1.08237508,-0.624371897,4.46141501,42,32.8994694,25.0900211,0.032967033,274,0.994848485,5,106.110931,479.490631,169.733915,252.032272,0.67,1007.36775,5,-10.5,9.20833333,17.7738947,42.9981259,0.413364405,2.0788226,0.795993866
2009_v1_06090850_ECG,1960,2260,1087.70073,1089,1085,1.0798222,-0.636985208,4.48964019,42,32.8606482,24.8420652,0.032967033,274,0.995454545,5,111.568614,474.459017,170.703297,250.159556,0.68,1006.89048,5,-10.4343434,9.27192982,17.5981036,43.0110584,0.409153001,2.08516065,0.80986107
2009_v1_06090850_ECG,1965,2265,1087.03285,1088.5,1085,1.04737254,-0.65322815,4.6364514,40,32.3631356,24.3116216,0.0256410256,274,0.995151515,5,130.754731,430.81732,178.81447,240.163068,0.74,980.549589,5,-10.5841837,9.30652174,17.2218268,42.4046432,0.406130686,2.11080308,0.82313291
2009_v1_06090850_ECG,1970,2270,1086.45985,1088,1080,1.02348739,-0.660688273,4.74873297,40,31.9919895,24.0038916,0.0256410256,274,0.995151515,5,151.229501,399.774289,169.64093,240.550603,0.71,961.195323,5,-10.7809278,9.24784483,17.0033731,41.9268421,0.405548624,2.13120375,0.849442655
2009_v1_06090850_ECG,1975,2275,1086.70438,1088,1080,0.986941592,-0.775883772,4.90126368,39,31.4156266,23.4826723,0.021978022,274,0.995454545,5,156.786208,390.992067,152.301074,230.315373,0.66,930.394723,5,-10.7139175,9.38146552,16.6344233,41.1968342,0.403779164,2.09852182,0.86179488
2009_v1_06090850_ECG,1980,2280,1087.72161,1090,1080,0.970422215,-0.832532334,5.11906106,37.25,31.1516005,23.4138753,0.0220588235,273,0.995454545,5,136.615832,394.482117,154.571084,228.679983,0.68,914.349016,5,-10.6045918,9.50877193,16.5857643,40.8136846,0.406377529,2.08935293,0.868373289
2009_v1_06090850_ECG,1985,2285,1088.44526,1090,1078,0.950453036,-0.888140963,5.35018685,38,30.8294184,23.4080697,0.021978022,274,0.995454545,5,119.882255,392.444317,153.977391,226.439556,0.68,892.743518,5,-10.3427835,9.65732759,16.5820621,40.3229623,0.411231248,1.96298173,0.866872527
2009_v1_06090850_ECG,1990,2290,1089.0293,1090,1078,0.926477079,-0.931271518,5.62287578,36,30.438086,23.3097745,0.0220588235,273,0.995454545,5,100.81949,386.302839,159.25962,224.355966,0.71,870.737915,5,-10.3106061,9.13815789,16.5126718,39.7528091,0.415383773,1.99980087,0.895215171
2009_v1_06090850_ECG,1995,2295,1089.97417,1091,1078,0.90192896,-0.985426309,5.96722009,34.75,30.0321321,23.5256361,0.0222222222,271,0.994895105,5,80.280634,383.466382,155.211191,227.966954,0.68,846.925161,5,-10.4252577,9.06359649,16.6659688,39.0653735,0.426617419,2.00746804,0.910548525
2009_v1_06090850_ECG,2000,2300,1090.73063,1091,1078,0.871590133,-1.05567938,6.39639619,32.75,29.5227054,23.4260064,0.0222222222,271,0.993916084,5,62.4590148,377.36228,150.49679,226.966467,0.66,817.284551,5,-10.33,9.26126126,16.5953294,38.3115558,0.433167722,2.04086632,0.933976003
2009_v1_06090850_ECG,2005,2305,1090.39706,1091,1078,0.899974604,-1.07894408,6.2650246,33,29.9995767,23.6899561,0.0221402214,272,0.994219114,5,49.7146944,368.012858,187.834676,234.780938,0.8,840.343167,5,-10.19,9.18973214,16.7817914,38.9656347,0.430681844,2.01112535,0.931854039
2009_v1_06090850_ECG,2010,2310,1089.48897,1091,1078,1.02158659,-1.22775973,6.15773279,33,31.9622683,23.8363114,0.0221402214,272,0.994219114,5,52.1064111,420.114372,256.033696,232.44569,1.1,960.700169,5,-10,9.1875,16.8853205,41.9292158,0.402710144,2.01487569,0.917868168
2009_v1_06090850_ECG,2015,2315,1088.73897,1091,1078,1.14030431,-1.40559157,6.53036904,33.5,33.7683921,23.6107737,0.0147601476,272,0.991088772,5,74.0252283,520.204774,227.967269,255.62292,0.89,1077.82019,5,-9.8775,9.125,16.725047,44.731213,0.373901039,1.79068116,1.06184592
2009_v1_06090850_ECG,2020,2320,1089.31618,1091,1078,1.047479,-1.27426049,6.25007523,33.5,32.3647802,23.4350795,0.0147601476,272,0.980410935,5,91.9944156,558.547769,107.256991,235.565044,0.46,993.364219,5,-10.045,9.12053571,16.6016234,42.6537701,0.389218195,2.01976567,0.928099123
2009_v1_06090850_ECG,2025,2325,1088.79336,1091,1080,1.08294973,-1.2264502,5.90385887,34,32.9082016,23.5386207,0.0148148148,271,0.97007294,5,111.609366,580.426317,101.266241,235.492344,0.43,1028.79427,5,-9.71813725,9.29357798,16.6750157,43.449319,0.383780829,2.06689146,0.913254676
2009_v1_06090850_ECG,2030,2330,1088.12868,1091,1080,1.12473246,-1.17302193,5.50433675,35,33.5370312,23.5710436,0.0147601476,272,0.960516792,5,142.527499,569.811845,120.776623,237.156423,0.51,1070.27239,5,-9.86519608,9.11363636,16.6970789,44.3922569,0.376125928,1.84687238,1.04656897
2009_v1_06090850_ECG,2035,2335,1088.05147,1090.5,1080,1.1295693,-1.15706809,5.45134993,35.5,33.6090657,23.5138336,0.0110701107,272,0.951593519,5,147.415373,570.279941,124.612108,233.488121,0.53,1075.79554,5,-10.0606796,8.86697248,16.657119,44.516053,0.374182298,1.83501789,1.03562534
2009_v1_06090850_ECG,2040,2340,1088.3321,1091,1078,1.135793,-1.16877273,5.4515838,36,33.7015282,23.6773841,0.0111111111,271,0.948142664,5,143.767806,576.326129,126.272099,235.416294,0.54,1081.78233,5,-10.407767,8.97453704,16.7730765,44.6122171,0.375974959,1.82815271,1.0319792
2009_v1_06090850_ECG,2045,2345,1088.66912,1091,1078,1.1350414,-1.19125594,5.48706152,35,33.6903755,23.574644,0.0110701107,272,0.948142664,5,130.519016,589.869123,128.614655,231.533311,0.56,1080.5361,5,-10.5330189,8.93632075,16.7003366,44.6226575,0.374256881,1.80251933,1.03606092
2009_v1_06090850_ECG,2050,2350,1089.11808,1093,1078,1.15005267,-1.19448903,5.4452186,36,33.9124265,23.8410632,0.0148148148,271,0.948445694,5,124.337985,602.394774,129.195021,238.983123,0.54,1094.9109,5,-10.3004808,9.13785047,16.8884559,44.8874749,0.37623983,1.78265643,1.02711672
2009_v1_06090850_ECG,2055,2355,1088.64338,1093,1078,1.28683545,-1.50882904,7.18319369,37,35.8724888,25.9875076,0.0184501845,272,0.948748724,5,144.979441,578.10254,200.880556,286.7299,0.7,1210.69244,5,-10.2740385,9.26851852,18.405539,47.2748035,0.389330841,1.80667055,1.02150028
2009_v1_06090850_ECG,2060,2360,1088.97426,1093,1078,1.40376686,-1.07454407,7.42023731,38,37.4668769,36.1718938,0.0258302583,272,0.948748724,5,150.786538,574.566806,158.266061,422.185974,0.37,1305.80538,5,-10.3173077,9.25925926,25.6246487,46.3779162,0.552518327,1.81060025,1.0074237
2009_v1_06090850_ECG,2065,2365,1088.85609,1093,1078,1.40945699,-1.05804534,7.37783863,37.75,37.5427355,36.274366,0.0259259259,271,0.948748724,5,150.008222,577.054404,165.141468,421.827731,0.39,1314.03183,5,-10.2785714,9.52122642,25.6970917,46.4604505,0.55309605,1.84316499,1.00728825
2009_v1_06090850_ECG,2070,2370,1089.15074,1093,1078,1.41988494,-1.04883151,7.30147102,38.5,37.6813607,36.2893761,0.0258302583,272,0.948748724,5,133.437044,583.633134,182.345174,420.123728,0.43,1319.53908,5,-10.2571429,9.87735849,25.7078117,46.6784566,0.550742539,1.88482256,1.01057384
2009_v1_06090850_ECG,2075,2375,1088.9631,1093,1078,1.42280604,-1.03605027,7.27704609,38.75,37.7201013,36.3125323,0.0259259259,271,0.948748724,5,129.05003,588.170435,185.445112,419.328282,0.44,1321.99386,5,-10,9.94047619,25.724383,46.7318756,0.55046759,1.85972251,0.999536485
2009_v1_06090850_ECG,2080,2380,1088.34559,1091.5,1078,1.41058862,-1.0093908,7.29929302,39,37.5578037,36.1723019,0.0258302583,272,0.948748724,5,126.288031,584.448058,186.720116,412.970049,0.45,1310.42625,5,-9.98584906,9.92380952,25.6248977,46.524637,0.55078125,1.86717123,0.999238284
2009_v1_06090850_ECG,2085,2385,1088.19853,1091.5,1078,1.40746598,-1.00458483,7.3133042,38.5,37.5162095,36.1276437,0.0258302583,272,0.948748724,5,123.396093,583.419616,190.802648,409.254971,0.47,1306.87333,5,-10.0420561,9.98076923,25.5932204,46.474929,0.550688746,1.86901795,1.00381248
2009_v1_06090850_ECG,2090,2390,1087.94118,1091,1078,1.40198177,-0.993576253,7.34048801,37.5,37.443047,36.1482189,0.0258302583,272,0.948748724,5,116.563899,580.747168,194.590595,409.041764,0.48,1300.94343,5,-9.78935185,9.34803922,25.6079281,46.3486521,0.552506426,1.86161051,0.998641194
2009_v1_06090850_ECG,2095,2395,1087.73162,1090.5,1078,1.394448,-0.99246926,7.38771501,37.5,37.3423084,36.2392114,0.0258302583,272,0.949051755,5,99.6058043,577.188246,201.170597,413.778209,0.49,1291.74286,5,-10.0981308,9.40048544,25.6723859,46.1500228,0.556281109,1.81970455,0.989525359
2009_v1_06090850_ECG,2100,2400,1087.23162,1090,1078,1.37605317,-0.997346245,7.49813971,38.5,37.0951906,36.4713404,0.0295202952,272,0.949354785,5,83.8000142,574.458452,191.286102,423.00462,0.45,1272.54919,5,-10.2,9.73333333,25.8367873,45.6570559,0.565888159,1.82880379,0.983232944
2009_v1_06090850_ECG,2105,2405,1086.91544,1090,1078,1.35739873,-1.01478356,7.63473859,38.5,36.8428925,36.5006698,0.0295202952,272,0.949354785,5,64.5316437,588.069998,179.904497,418.633814,0.43,1251.13995,5,-10.3595238,9.5952381,25.8576165,45.2347336,0.571631896,1.79327269,0.985442827
2009_v1_06090850_ECG,2110,2410,1087.01103,1090,1078,1.35683014,-1.02293211,7.65191451,37.5,36.8351753,36.3730162,0.0295202952,272,0.949354785,5,58.2536233,595.192863,181.702099,415.908409,0.44,1251.05699,5,-10.447619,9.45192308,25.7671484,45.273771,0.569140758,1.80939806,0.994044181
2009_v1_06090850_ECG,2115,2415,1086.32721,1090,1078,1.32827262,-1.03451939,7.85376003,37.5,36.4454745,36.1120131,0.0258302583,272,0.949354785,5,47.8222226,581.537711,189.6555,405.83733,0.47,1224.85276,5,-10.3466981,9.35679612,25.582282,44.7447436,0.571738262,1.79120137,1.01105689
