patID,t_start,t_end,NNmean,NNmedian,NNmode,NNvariance,NNskew,NNkurt,NNiqr,SDNN,RMSSD,pnn50,btsdet,avgsqi,tdflag,ulf,vlf,lf,hf,lfhf,ttlpwr,fdflag,ac,dc,SD1,SD2,SD1SD2,SampEn,ApEn
2007_v2_07211003_ECG,0,300,918.476636,925,953,3.21785023,-0.652648998,3.76090328,77.5,56.7260983,30.7534551,0.0625,321,0.944440844,5,226.476133,2300.75702,606.893263,420.859483,1.44,3554.98589,5,-9.27362205,9.8996063,21.7800125,77.2096595,0.282089219,1.52679532,1.0636126
2007_v2_07211003_ECG,5,305,917.975155,925,953,3.16764424,-0.656933729,3.82131983,75,56.2818287,30.9213654,0.0654205607,322,0.944440844,5,233.376797,2266.53212,584.637127,418.565965,1.4,3503.11201,5,-9.03174603,9.86821705,21.898769,76.5227574,0.286173287,1.53103878,1.06817829
2007_v2_07211003_ECG,10,310,917.86646,925,953,3.16318772,-0.6518909,3.83123898,74,56.2422236,31.0472457,0.0654205607,322,0.939820437,5,274.877953,2203.46648,605.896253,415.504819,1.46,3499.74551,5,-8.96428571,9.94573643,21.9875405,76.4390182,0.287648128,1.52923223,1.06180959
2007_v2_07211003_ECG,15,315,917.990712,924,953,3.17399681,-0.644103154,3.81136371,74.75,56.3382358,30.9169394,0.0652173913,323,0.931453434,5,310.086494,2155.27932,634.992483,413.419187,1.54,3513.77749,5,-9.14087302,10.0115385,21.8947863,76.6068662,0.285807101,1.50423665,1.05343399
2007_v2_07211003_ECG,20,320,915.895062,922,953,3.17112827,-0.593395141,3.71893956,76,56.3127718,30.877166,0.0619195046,324,0.929295997,5,266.966191,2110.78557,724.211902,411.445843,1.76,3513.40951,5,-9.34722222,10.1780303,21.8664397,76.5775121,0.285546488,1.50637689,1.0588989
2007_v2_07211003_ECG,25,325,915.216718,921,953,3.13343115,-0.588195291,3.76766084,74,55.9770591,30.8456385,0.0590062112,323,0.928048133,5,301.798897,2046.5328,725.153217,403.901651,1.8,3477.38657,5,-9.36706349,10.2729008,21.8451035,76.0897743,0.287096443,1.55164955,1.07756317
2007_v2_07211003_ECG,30,330,914.628483,920,953,3.18015968,-0.542796463,3.67317288,74.75,56.3929045,32.6406655,0.0652173913,323,0.928048133,5,306.655571,2050.38277,715.174386,438.074362,1.63,3510.28709,5,-9.58531746,10.1183206,23.1163578,76.3279331,0.302855808,1.5367239,1.06558274
2007_v2_07211003_ECG,35,335,915.647059,922,953,3.15578188,-0.59376553,3.76494297,72,56.1763462,32.8398618,0.0683229814,323,0.928048133,5,289.973648,2039.932,705.716247,449.56139,1.57,3485.18329,5,-9.44444444,10.5687023,23.2572205,75.9648962,0.306157471,1.57269474,1.07682309
2007_v2_07211003_ECG,40,340,917.306502,924,953,3.25619458,-0.600015019,3.68275634,75,57.0630755,32.8975919,0.0683229814,323,0.928048133,5,329.049067,2056.94057,751.086744,459.735461,1.63,3596.81184,5,-9.32421875,10.1065891,23.2964239,77.2636124,0.301518699,1.60208314,1.07045337
2007_v2_07211003_ECG,45,345,919.021739,925,953,3.37082507,-0.60326835,3.59895361,78,58.058807,32.99358,0.0685358255,322,0.928048133,5,375.003673,2138.27741,745.848719,469.502711,1.59,3728.63251,5,-10.0826923,10.1924603,23.3650313,78.7129307,0.296838539,1.66852227,1.07659162
2007_v2_07211003_ECG,50,350,921.186335,926.5,953,3.49376579,-0.599123334,3.56188898,78,59.1080857,33.0576293,0.0685358255,322,0.928048133,5,424.650581,2235.76055,738.78718,466.591764,1.58,3865.79008,5,-10.2185039,10.4379845,23.4107503,80.2462981,0.291736203,1.70098564,1.07426686
2007_v2_07211003_ECG,55,355,923.208723,929,953,3.61905317,-0.605128802,3.50982618,79,60.1585669,33.3097677,0.06875,321,0.9297148,5,479.148344,2306.81974,746.031963,474.391782,1.57,4006.39183,5,-10.0488281,10.6437008,23.5888809,81.7414891,0.288579045,1.63767251,1.11624205
2007_v2_07211003_ECG,60,360,925.1125,930,953,3.68815658,-0.641657757,3.51147613,79.5,60.730195,33.5865513,0.0721003135,320,0.933167181,5,516.656533,2334.63202,753.57146,488.024425,1.54,4092.88444,5,-10.356,10.7693798,23.7854263,82.5261574,0.288216816,1.64048625,1.11673876
2007_v2_07211003_ECG,65,365,926.95,933,953,3.68064326,-0.698454884,3.60173649,80,60.6683052,33.59649,0.0721003135,320,0.928925728,5,531.778967,2367.1565,705.540404,487.488676,1.45,4091.96455,5,-10.302,10.998062,23.7929828,82.4328848,0.288634601,1.64674932,1.11929359
2007_v2_07211003_ECG,70,370,927.733542,933,875,3.76789419,-0.683955706,3.52830675,82.5,61.3831751,34.0395626,0.0754716981,319,0.924394916,5,609.601475,2376.84752,716.36094,493.82217,1.45,4196.6321,5,-10.2983871,11.0387597,24.1075255,83.3943378,0.289078685,1.65219098,1.1127692
2007_v2_07211003_ECG,75,375,927.260188,931,875,3.77539435,-0.660791093,3.49453936,82.75,61.4442378,34.0901044,0.0754716981,319,0.924138505,5,604.456604,2369.02382,733.954467,491.154543,1.49,4198.58943,5,-10.1592742,11.0596154,24.1430014,83.4739731,0.289227893,1.68317145,1.11676652
2007_v2_07211003_ECG,80,380,927.28125,931,875,3.76901783,-0.660776881,3.49662703,82.5,61.3923271,34.2719165,0.0752351097,320,0.924805172,5,618.492255,2343.23355,735.807528,496.330351,1.48,4193.86368,5,-10.0120968,11.0871212,24.2719779,83.3601029,0.291170201,1.7075086,1.12612582
2007_v2_07211003_ECG,85,385,927.39185,931,875,3.79249691,-0.658961683,3.47192588,83,61.5832519,34.2756125,0.072327044,319,0.925796625,5,693.46887,2288.95416,749.492929,499.084055,1.5,4231.00002,5,-10.1170635,10.7732558,24.2745524,83.64054,0.290224721,1.66543263,1.11308067
2007_v2_07211003_ECG,90,390,928,931,875,3.80378616,-0.681530014,3.48017187,84.5,61.6748422,34.3349209,0.0754716981,319,0.926941924,5,708.22775,2289.43024,750.284762,499.870729,1.5,4247.81349,5,-10.2822581,10.7538168,24.3164644,83.763249,0.290299918,1.67100989,1.11953962
2007_v2_07211003_ECG,95,395,929.827044,934,925,3.86107094,-0.721650807,3.50341058,84,62.1375164,34.6828351,0.0788643533,318,0.926941924,5,721.166917,2336.35505,748.85733,513.714924,1.46,4320.09422,5,-10.1987705,10.8162879,24.5628385,84.3730338,0.291121907,1.65133856,1.11064372
2007_v2_07211003_ECG,100,400,930.779874,938.5,925,3.90930155,-0.739056314,3.47786232,85,62.5244076,34.9677634,0.0820189274,318,0.929182821,5,759.215895,2363.21257,735.232009,523.317347,1.4,4380.97783,5,-10.4695122,10.5133588,24.7644832,84.8841768,0.2917444,1.68006982,1.11466324
2007_v2_07211003_ECG,105,405,931.561514,940,925,3.90606345,-0.771098263,3.52815361,86.25,62.4985076,35.083084,0.082278481,317,0.931025958,5,733.77358,2384.88682,726.385364,530.56368,1.37,4375.60945,5,-10.4133065,11.1162791,24.8462485,84.8221129,0.29292183,1.67454765,1.11100848
2007_v2_07211003_ECG,110,410,932.487421,940,925,3.8225724,-0.814648156,3.68792082,80,61.8269553,34.9459249,0.0788643533,318,0.931025958,5,667.002849,2424.71437,667.485968,521.760709,1.28,4280.9639,5,-10.375,11.1033835,24.7494229,83.8606634,0.295125532,1.67098992,1.11694054
2007_v2_07211003_ECG,115,415,932.44795,940,925,3.83677972,-0.810544428,3.67037254,80.5,61.9417446,35.0640012,0.0791139241,317,0.933593652,5,704.855426,2400.93024,666.119656,529.953842,1.26,4301.85916,5,-9.878,11.2112403,24.8332323,84.0051785,0.295615494,1.64433164,1.09983531
2007_v2_07211003_ECG,120,420,932.908517,944,925,3.84686186,-0.827428454,3.67654562,80.5,62.0230752,34.934387,0.0791139241,317,0.939027995,5,718.963085,2393.73522,681.195155,523.577835,1.3,4317.47129,5,-10.046,10.5717054,24.7413743,84.1521724,0.294007554,1.60091241,1.09323493
2007_v2_07211003_ECG,125,425,934.512658,946,925,3.77640936,-0.900152317,3.87484414,77,61.4524968,34.9211356,0.0793650794,316,0.941550118,5,649.704682,2434.9345,624.553023,520.223544,1.2,4229.41575,5,-10.078629,10.4186047,24.7308854,83.3138766,0.296839931,1.62021787,1.10032264
2007_v2_07211003_ECG,130,430,935.766562,946,925,3.68723647,-0.959212353,4.084272,75.25,60.7226191,32.7965535,0.0759493671,317,0.944621427,5,607.787568,2409.84537,628.332327,500.174803,1.26,4146.14007,5,-10.234,10.6744186,23.2270039,82.6739332,0.280947126,1.60409828,1.10826629
2007_v2_07211003_ECG,135,435,935.66877,946,925,3.65816526,-0.952091219,4.11137702,75.25,60.4827683,29.4742432,0.0696202532,317,0.952337902,5,513.430061,2372.38746,804.708589,412.767097,1.95,4103.2932,5,-10.202381,10.4414062,20.8732162,82.9496194,0.251637275,1.58528406,1.10473249
2007_v2_07211003_ECG,140,440,938.29653,946,925,3.15707002,-0.844050928,4.18521785,73.25,56.1878102,29.5607613,0.0696202532,317,0.959606021,5,317.847828,1982.03222,815.130456,308.963194,2.64,3423.97369,5,-10.1349206,10.5175781,20.9333139,76.6546568,0.273086004,1.71981296,1.10727217
2007_v2_07211003_ECG,145,445,941.882911,948.5,925,2.53713863,-0.436768786,2.71483791,70,50.3700171,28.3421835,0.0603174603,316,0.960899881,5,170.983423,1683.62122,601.159785,275.49018,2.18,2731.25461,5,-10.018,9.796875,20.0709935,68.3478784,0.293659349,1.87491147,1.10620444
2007_v2_07211003_ECG,150,450,943.129747,951,969,2.45372597,-0.47764351,2.85225348,66.5,49.5350984,28.1543929,0.0603174603,316,0.962860665,5,133.391234,1633.72263,604.961894,269.741357,2.24,2641.81711,5,-9.958,9.46679687,19.9398347,67.1554535,0.296920558,1.85299304,1.11026797
2007_v2_07211003_ECG,155,455,944.857143,953,969,2.4213394,-0.512898992,2.93601782,64.75,49.2071072,28.2090129,0.0605095541,315,0.966525823,5,106.350066,1589.86926,611.760679,293.501662,2.08,2601.48166,5,-9.85887097,9.31835937,19.9753222,66.6608228,0.2996561,1.85514886,1.11970036
2007_v2_07211003_ECG,160,460,946.977778,955,969,2.32134664,-0.572174485,3.1118949,61.75,48.1803553,28.2178739,0.0605095541,315,0.962457196,5,78.2052731,1522.13609,617.723283,275.154835,2.25,2493.21948,5,-10.2261905,9.22420635,19.9840003,65.1408705,0.306781291,1.86009322,1.12862628
2007_v2_07211003_ECG,165,465,948.299363,955,969,2.21251073,-0.607009441,3.32585577,59,47.0373334,28.2233221,0.0607028754,314,0.961367452,5,48.8551611,1423.23451,628.994105,269.236539,2.34,2370.32032,5,-10.097561,9.21484375,19.9886542,63.4466325,0.315046731,1.86085674,1.13929386
2007_v2_07211003_ECG,170,470,950.56051,956,969,2.13856661,-0.621131539,3.46533667,61,46.2446388,28.1149512,0.0575079872,314,0.961367452,5,42.3905061,1372.3928,617.881856,250.689796,2.46,2283.35496,5,-9.92622951,9.32945736,19.9120385,62.2948148,0.31964199,1.96359742,1.03421707
2007_v2_07211003_ECG,175,475,950.715655,956,969,2.13841568,-0.630555455,3.48357845,60,46.2430069,27.9995994,0.0544871795,313,0.961367452,5,44.0585259,1382.64754,610.665497,246.524608,2.48,2283.89617,5,-9.72708333,9.47868217,19.8303703,62.3184385,0.31821032,1.96068147,1.02849775
2007_v2_07211003_ECG,180,480,950.86262,956,969,2.15929837,-0.608591823,3.47086034,60,46.4682512,28.303359,0.0544871795,313,0.961367452,5,68.0009433,1359.43615,619.020153,252.931773,2.45,2299.38902,5,-9.82317073,9.65873016,20.0454898,62.584144,0.32029662,1.98835777,1.03092945
2007_v2_07211003_ECG,185,485,951.191693,956,969,2.21433493,-0.555913156,3.41761036,60,47.0567204,28.6661822,0.0576923077,313,0.961367452,5,98.1842739,1347.30247,663.534783,247.153656,2.68,2356.17518,5,-9.73185484,9.624,20.3010786,63.3761475,0.320326801,1.88933683,1.13164845
2007_v2_07211003_ECG,190,490,950.811502,956,969,2.17235859,-0.586398599,3.45661248,60,46.6085677,28.3708839,0.0544871795,313,0.960187965,5,135.316683,1298.94278,643.760362,243.929671,2.64,2321.9495,5,-9.4695122,9.50396825,20.0934701,62.7771426,0.320076214,1.99789002,1.0254031
2007_v2_07211003_ECG,195,495,949.984076,955,969,2.2042777,-0.543782299,3.33863767,63,46.9497359,28.519765,0.054313099,314,0.959965743,5,125.130253,1303.41433,685.969126,236.608457,2.9,2351.12217,5,-9.55645161,9.60119048,20.1987556,63.2500251,0.319347789,1.98146407,1.15696522
2007_v2_07211003_ECG,200,500,949.5,954.5,969,2.21605911,-0.515688718,3.28799081,63,47.075037,28.4785105,0.054313099,314,0.959965743,5,120.156022,1325.81631,672.636401,240.93677,2.79,2359.5455,5,-9.436,9.82,20.1693588,63.4453716,0.317901184,1.96464086,1.14287354
2007_v2_07211003_ECG,205,505,950.875399,956,969,2.21497481,-0.569384316,3.37386137,60,47.0635189,28.850521,0.0576923077,313,0.959965743,5,102.82649,1309.34413,695.252384,248.425519,2.8,2355.84852,5,-9.552,9.59879032,20.4302574,63.3447251,0.322524998,1.99201085,1.14858938
2007_v2_07211003_ECG,210,510,952.98722,957,969,2.30484599,-0.510548295,3.44489348,60.5,48.0088116,29.1833286,0.0608974359,313,0.959965743,5,104.304515,1394.89932,694.58765,252.354496,2.75,2446.14598,5,-9.18,9.85685484,20.6688474,64.6721789,0.319594109,1.99393397,1.13981579
2007_v2_07211003_ECG,215,515,952.42492,956,969,2.27982207,-0.497411028,3.47896259,59.25,47.7474823,29.055815,0.0608974359,313,0.959965743,5,123.455563,1371.88871,675.538762,247.766023,2.73,2418.64906,5,-9.42137097,9.448,20.5785025,64.3130576,0.319973942,1.96791719,1.1388988
2007_v2_07211003_ECG,220,520,951.681529,956,969,2.31331678,-0.460458089,3.36490485,60,48.0969519,28.8779518,0.0607028754,314,0.959965743,5,104.276098,1382.78396,717.201972,244.763573,2.93,2449.0256,5,-9.62903226,9.69444444,20.4519146,64.8718179,0.315266557,1.91159108,1.1191271
2007_v2_07211003_ECG,225,525,951.11465,955.5,969,2.3523063,-0.440199259,3.27301896,61,48.5005804,28.889179,0.0638977636,314,0.957567984,5,96.4574412,1430.84855,719.96095,242.578968,2.97,2489.84591,5,-9.55625,9.625,20.4602917,65.4674657,0.312526099,1.93267391,1.12308612
2007_v2_07211003_ECG,230,530,951.790476,956,969,2.34575851,-0.470963091,3.31116283,60,48.4330312,29.2085626,0.0668789809,315,0.956169291,5,85.7029749,1420.70471,727.15266,248.350685,2.93,2481.91103,5,-9.62708333,9.72916667,20.6864798,65.2961451,0.316810123,1.98422053,1.13101148
2007_v2_07211003_ECG,235,535,950.920886,955.5,969,2.37200324,-0.43308339,3.22525026,61,48.703216,29.4903266,0.0698412698,316,0.956169291,5,88.1169882,1410.04028,761.761108,242.470135,3.14,2502.38851,5,-9.73541667,9.8619403,20.8858724,65.6337324,0.318218569,2.01820884,1.13971305
2007_v2_07211003_ECG,240,540,950.278481,954.5,969,2.40330633,-0.405283726,3.15439702,62,49.0235283,29.889479,0.073015873,316,0.955947069,5,102.958866,1378.07232,786.034352,268.003153,2.93,2535.06869,5,-9.99180328,9.5094697,21.1674143,66.0193398,0.320624447,2.04203998,1.13544772
2007_v2_07211003_ECG,245,545,949.838608,953,969,2.42106276,-0.384746367,3.10659116,63,49.2042961,29.7913911,0.073015873,316,0.95336185,5,103.91143,1383.35083,796.79292,270.711426,2.94,2554.76661,5,-10.2886179,9.45610687,21.0985737,66.3096954,0.318182335,2.01149215,1.11189218
2007_v2_07211003_ECG,250,550,949.620253,953,969,2.42765851,-0.371813022,3.08429974,63.5,49.2712747,29.7565786,0.073015873,316,0.95455396,5,101.259322,1372.42176,816.231967,268.211105,3.04,2558.12415,5,-10.2822581,9.39807692,21.0743452,66.4167825,0.317304519,2.04539371,1.12401476
2007_v2_07211003_ECG,255,555,952.250794,955,969,2.22885091,-0.328545847,3.11565576,62.75,47.2107076,29.9468212,0.076433121,315,0.954972261,5,45.6800729,1147.52464,813.477435,309.355364,2.63,2316.03751,5,-10.1434426,9.72519084,21.2046502,63.3092777,0.334937485,2.05175924,1.14645261
2007_v2_07211003_ECG,260,560,955.127389,957,969,2.01209235,-0.164995788,2.75630399,63,44.8563524,30.0135752,0.0798722045,314,0.952654447,5,11.5705723,1045.51649,733.047287,273.442693,2.68,2063.57704,5,-10.5914634,9.5872093,21.2558747,59.7693273,0.35563182,2.14387427,1.04196062
2007_v2_07211003_ECG,265,565,956.172524,959,969,1.97753424,-0.210027717,2.84301899,60.25,44.4694754,30.2223597,0.0801282051,313,0.944193264,5,6.54248088,1018.53829,732.334191,272.10987,2.69,2029.52484,5,-10.2889344,9.83333333,21.4044646,59.1347392,0.36196092,2.17962039,1.04222477
2007_v2_07211003_ECG,270,570,956.404459,960,969,1.96188381,-0.219191061,2.87307028,60,44.2931576,30.1534944,0.0798722045,314,0.939526597,5,8.70838891,992.23135,742.656693,269.441482,2.76,2013.03791,5,-10.9294355,10.1308594,21.355859,58.8871371,0.362657451,2.17588865,1.03663109
2007_v2_07211003_ECG,275,575,956.509554,960,969,1.95882579,-0.225786007,2.88341779,59,44.2586239,30.3488766,0.0830670927,314,0.937539095,5,15.1912309,994.303815,722.635424,276.162816,2.62,2008.29329,5,-10.8467742,10.3359375,21.4942022,58.7847841,0.365642274,2.17023359,1.03570002
2007_v2_07211003_ECG,280,580,955.884984,958,964,2.00041622,-0.203014273,2.79649751,62.25,44.7260127,30.6401258,0.0865384615,313,0.93359574,5,22.8579767,1027.48863,719.230666,284.278955,2.53,2053.85623,5,-10.9715447,10.265625,21.7005929,59.4131021,0.365249283,2.13463179,1.01435186
2007_v2_07211003_ECG,285,585,955.449045,957,969,1.99016513,-0.182843071,2.80374364,63,44.6112668,30.3371365,0.0862619808,314,0.929658765,5,25.4500013,1020.1807,717.387133,279.523231,2.57,2042.54107,5,-10.7916667,10.5359848,21.4853777,59.3187053,0.362202406,2.14653373,1.01804807
2007_v2_07211003_ECG,290,590,954.286624,955,969,1.96407094,-0.148983778,2.80122564,62,44.31784,29.981677,0.0830670927,314,0.924146094,5,29.1043411,997.782316,717.83863,267.941302,2.68,2012.66659,5,-10.6512605,10.3984962,21.2335345,58.9684567,0.360082927,2.11449821,1.02034277
2007_v2_07211003_ECG,295,595,952.879365,953,969,2.01250769,-0.0921510633,2.69390697,62.75,44.8609819,29.8474892,0.0828025478,315,0.919307063,5,48.1159485,1003.18255,747.665536,265.474674,2.82,2064.43871,5,-10.6782787,9.97709924,21.1379408,59.8180813,0.353370424,2.02407774,1.00542973
2007_v2_07211003_ECG,300,600,951.431746,951,969,2.05486396,-0.0454664272,2.63754165,63.75,45.3306073,29.9142618,0.0828025478,315,0.920076294,5,68.2401903,1039.94286,729.173615,270.277926,2.7,2107.63459,5,-10.4118852,9.95610687,21.1853462,60.5054462,0.350139492,1.99315783,0.995771257
2007_v2_07211003_ECG,305,605,950.563291,949.5,969,2.09585312,-0.026956813,2.58116012,65.5,45.7804885,29.7289341,0.0793650794,316,0.920076294,5,96.6130576,1104.13503,688.356553,266.184555,2.59,2155.28919,5,-10.4288618,9.66412214,21.0549738,61.2241319,0.343899915,1.97705744,0.993742511
2007_v2_07211003_ECG,310,610,949.75,947.5,969,2.09031508,0.0127896307,2.59104068,64.5,45.7199637,29.4853744,0.0761904762,316,0.9246967,5,106.687714,1113.40891,666.088235,262.300576,2.54,2148.48544,5,-10.2480159,9.703125,20.8821413,61.1928618,0.341251262,1.98285456,0.995493773
2007_v2_07211003_ECG,315,615,948.841772,946,969,2.11187965,0.0474266834,2.56429695,62.5,45.9551917,29.4030017,0.0761904762,316,0.933063704,5,132.182242,1094.39181,669.866506,273.499699,2.45,2169.94025,5,-10.4193548,9.43846154,20.824115,61.5639142,0.338251967,1.98795286,0.99891093
2007_v2_07211003_ECG,320,620,949.695238,946,969,2.00025714,0.15309947,2.44182474,62.5,44.7242344,29.3454605,0.076433121,315,0.935221141,5,187.907124,984.57407,607.472126,270.168034,2.25,2050.12135,5,-10.4702381,9.42125984,20.783406,59.7374616,0.34791244,1.97181186,1.00761484
2007_v2_07211003_ECG,325,625,949.218354,946,924,2.01613947,0.170827816,2.41508101,63.5,44.9014418,29.2450511,0.0761904762,316,0.936469004,5,220.603439,989.4619,599.647215,259.668753,2.31,2069.38131,5,-10.2956349,9.26953125,20.7122766,60.0273316,0.345047432,1.97793313,1.00784039
2007_v2_07211003_ECG,330,630,948.85489,946,924,1.9840928,0.228171453,2.36167193,64,44.5431566,26.9682772,0.0664556962,317,0.936469004,5,283.729266,980.557322,577.907705,218.187229,2.65,2060.38152,5,-10.3253968,9.25775194,19.0993546,60.0283288,0.318172354,1.96130091,1.03072918
2007_v2_07211003_ECG,335,635,948.689873,945.5,924,2.00042415,0.230707109,2.34262679,64,44.7261015,26.9156236,0.0666666667,316,0.936469004,5,321.338081,989.776837,555.806306,217.212354,2.56,2084.13358,5,-10.0654762,9.30859375,19.0622453,60.3115172,0.316063103,1.93237221,1.02168996
2007_v2_07211003_ECG,340,640,947.60443,945,924,1.96250652,0.28067136,2.42241032,61,44.3001865,26.9383187,0.0666666667,316,0.936469004,5,305.23832,960.669544,551.093011,222.399837,2.48,2039.40071,5,-9.83661417,9.28543307,19.0780156,59.6744699,0.319701468,1.92392894,1.02632482
2007_v2_07211003_ECG,345,645,945.359621,943,924,2.01649685,0.25951745,2.54809333,61.25,44.9054211,26.9322286,0.0664556962,317,0.936469004,5,337.303524,900.586455,626.945177,238.090323,2.63,2102.92548,5,-9.486,9.14615385,19.0700404,60.5749721,0.314817155,1.92743956,1.0252596
2007_v2_07211003_ECG,350,650,944.050473,941,924,1.93538985,0.284697872,2.65474801,58.25,43.9930659,27.225035,0.0696202532,317,0.936469004,5,309.512668,849.582576,629.739994,226.299491,2.78,2015.13473,5,-9.36507937,8.96511628,19.2810391,59.1525251,0.325954624,1.93615376,1.03089832
2007_v2_07211003_ECG,355,655,942.45283,938.5,924,1.87173752,0.315079574,2.73825939,59,43.2635819,27.1461752,0.0694006309,318,0.93465948,5,300.369058,797.349818,623.643536,222.336072,2.8,1943.69848,5,-9.65354331,8.79263566,19.2245413,58.0852136,0.330971345,1.92034965,1.04131299
2007_v2_07211003_ECG,360,660,941.622642,937.5,924,1.82099911,0.339019216,2.83608438,59,42.6731661,26.9360734,0.0662460568,318,0.930987883,5,274.864523,766.181328,627.381147,220.212817,2.85,1888.63981,5,-9.42063492,8.725,19.0761886,57.2546701,0.333181355,1.93804373,1.06696971
2007_v2_07211003_ECG,365,665,940.338558,935,924,1.80566489,0.398788674,2.90377245,56,42.4931158,26.7707481,0.0660377358,319,0.929439862,5,285.040246,722.064866,646.04698,215.592406,3,1868.7445,5,-9.37890625,8.69767442,18.9576004,57.0257764,0.332439145,1.91600106,1.07346662
2007_v2_07211003_ECG,370,670,939.388715,935,924,1.75255912,0.422468018,3.00364874,56,41.8635775,26.355814,0.0628930818,319,0.928023064,5,267.035951,727.79102,607.667706,210.954941,2.88,1813.44962,5,-9.25968992,8.6875,18.665746,56.1845901,0.332221807,1.94693777,1.08856979
2007_v2_07211003_ECG,375,675,939.786834,935,924,1.73970284,0.411996093,3.01837963,55,41.7097452,26.3140802,0.0628930818,319,0.919578175,5,276.430215,717.320627,605.353488,202.651386,2.99,1801.75572,5,-9.16860465,9.2109375,18.6361897,55.965151,0.332996326,1.93530606,1.09424597
2007_v2_07211003_ECG,380,680,938.347962,935,924,1.85643515,0.341421669,2.96194477,57,43.0863684,26.1250621,0.0628930818,319,0.915297932,5,344.004709,728.882622,656.158158,209.381287,3.13,1938.42678,5,-9.33846154,9.3523622,18.499582,58.0571766,0.31864419,1.9150155,1.07639552
2007_v2_07211003_ECG,385,685,936.33125,933,924,1.95077394,0.33064696,2.93070396,57,44.1675666,26.1533937,0.0626959248,320,0.914409043,5,399.150368,793.904137,655.489953,201.522257,3.25,2050.06672,5,-9.25,9.42773438,18.5213125,59.6532385,0.310482934,1.89385638,1.0526439
2007_v2_07211003_ECG,390,690,935.158879,932,924,1.97477155,0.373233173,2.91106859,62.25,44.4384018,25.9081913,0.059375,321,0.914152633,5,430.826782,812.424944,639.783375,194.573205,3.29,2077.60831,5,-9.29924242,9.39566929,18.3471882,60.1076018,0.305239065,1.89378723,1.05631363
2007_v2_07211003_ECG,395,695,933.791277,931,924,1.91862192,0.416670003,3.01787901,60,43.8020767,25.5696964,0.05625,321,0.914152633,5,418.26743,778.598213,630.468193,189.428878,3.33,2016.76271,5,-9.38257576,9.60629921,18.1083835,59.2396007,0.305680377,1.86058031,1.05480233
2007_v2_07211003_ECG,400,700,932.236025,928.5,924,1.90262948,0.468392371,3.09255787,62,43.6191412,25.1820784,0.0529595016,322,0.914152633,5,431.268034,756.20144,628.447768,179.267251,3.51,1995.18449,5,-9.48148148,9.788,17.8330641,59.0528643,0.301984744,1.85742203,1.05421589
2007_v2_07211003_ECG,405,705,932.024845,927.5,924,1.89375639,0.479434441,3.12240901,62,43.5173114,25.0402169,0.0529595016,322,0.914152633,5,426.098395,760.293715,622.867694,178.345821,3.49,1987.60562,5,-9.06766917,9.788,17.7336908,58.9324103,0.300915756,1.85085583,1.05299413
2007_v2_07211003_ECG,410,710,930.645963,926,924,2.00189919,0.428650044,3.04565992,63,44.7425881,25.0763321,0.0529595016,322,0.914152633,5,499.998038,755.104498,675.49955,185.126815,3.65,2115.7289,5,-8.88888889,9.38414634,17.7584947,60.732481,0.292405225,1.81082726,1.02304608
2007_v2_07211003_ECG,415,715,929.52322,924,924,2.03201421,0.457225095,3.03621244,61,45.0778683,24.960279,0.0527950311,323,0.914152633,5,532.115402,774.294848,668.729779,178.104905,3.75,2153.24493,5,-8.85110294,9.41056911,17.676363,61.2500989,0.288593215,1.78417299,1.02062456
2007_v2_07211003_ECG,420,720,927.762346,924,924,2.11392787,0.446219362,3.02676213,61,45.9774713,24.9842675,0.0526315789,324,0.914152633,5,586.575786,788.66553,694.61149,180.304604,3.85,2250.15741,5,-8.58029197,9.30846774,17.6922215,62.5686905,0.282764772,1.79371158,1.0193664
2007_v2_07211003_ECG,425,725,925.683077,922,924,2.23734061,0.409440872,3.00245433,61.25,47.300535,25.0022221,0.0524691358,325,0.91574577,5,661.765154,841.24091,722.751203,173.609788,4.16,2399.36706,5,-8.58514493,8.80645161,17.7051276,64.5074389,0.274466448,1.70521087,1.09414962
2007_v2_07211003_ECG,430,730,924.049383,920,924,2.279657,0.437209966,2.99800717,60,47.7457537,24.6561493,0.0495356037,324,0.91781113,5,700.642665,913.645469,666.182322,170.318253,3.91,2450.78871,5,-8.59742647,9.058,17.4613828,65.2258699,0.2677064,1.71738562,1.10088234
2007_v2_07211003_ECG,435,735,924.172308,920,924,2.25371713,0.452830927,3.02039986,59.5,47.4733307,24.593234,0.049382716,325,0.91781113,5,790.836195,840.875024,629.556339,173.631134,3.63,2434.89869,5,-8.68705036,9.06707317,17.4168969,64.8389232,0.268617923,1.71029994,1.10399793
2007_v2_07211003_ECG,440,740,923.036923,919,924,2.34345542,0.431793197,2.93495966,60.25,48.4092493,24.3949625,0.049382716,325,0.91781113,5,898.240803,819.564348,664.413072,168.034357,3.95,2550.25258,5,-8.83639706,8.81150794,17.2750584,66.2456278,0.260772808,1.6650781,1.08848916
2007_v2_07211003_ECG,445,745,921.688272,917,924,2.39722451,0.455173608,2.91711903,60.5,48.9614594,24.4184369,0.0495356037,324,0.91781113,5,932.171206,827.060357,662.77286,189.10148,3.5,2611.1059,5,-8.73161765,8.88508065,17.2916115,67.048111,0.257898563,1.64614277,1.07549677
2007_v2_07211003_ECG,450,750,920.527778,915,924,2.41787848,0.49904355,2.92491704,61,49.1719278,24.4226206,0.0495356037,324,0.91781113,5,954.646505,827.76473,670.759771,179.807994,3.73,2632.979,5,-9.0620438,8.74186992,17.2959505,67.3543396,0.256790441,1.64890645,1.07792798
2007_v2_07211003_ECG,455,755,919.144615,914,924,2.3542784,0.532505275,3.03108426,58.5,48.5209069,24.2415188,0.0462962963,325,0.915159977,5,917.94755,806.051061,646.022796,189.827282,3.4,2559.84869,5,-9.02717391,9.04268293,17.1671149,66.4367893,0.25839772,1.64875535,1.08566374
2007_v2_07211003_ECG,460,760,917.747692,914,924,2.29817071,0.589911943,3.18904323,57.25,47.9392398,24.2145758,0.0462962963,325,0.918161737,5,858.744968,813.842712,633.923923,182.293422,3.48,2488.80502,5,-8.57789855,9.1402439,17.1480125,65.5918218,0.261435222,1.61304994,1.08332929
2007_v2_07211003_ECG,465,765,916.667692,911,924,2.33562997,0.612906364,3.17686564,58,48.3283558,24.1616853,0.0462962963,325,0.915005838,5,886.704079,796.977032,676.054723,173.409022,3.9,2533.14486,5,-8.25899281,9.15778689,17.1106145,66.1701354,0.258585152,1.61777404,1.08975485
2007_v2_07211003_ECG,470,770,915.156442,910,924,2.20636007,0.642689005,3.3701393,55,46.9719072,23.9456436,0.0430769231,326,0.904189476,5,797.854915,789.572602,620.291748,175.046625,3.54,2382.76589,5,-8.09464286,8.94467213,16.9571769,64.2275197,0.26401731,1.62111428,1.11038458
2007_v2_07211003_ECG,475,775,914.779141,910,924,2.18812953,0.664200877,3.43383686,54,46.7774468,24.0367027,0.0461538462,326,0.891718335,5,736.175873,768.016356,666.263407,183.202874,3.64,2353.65851,5,-8.00177305,8.53719008,17.0215695,63.9259356,0.266270166,1.62002522,1.11080485
2007_v2_07211003_ECG,480,780,913.333333,909,924,2.04435787,0.677370785,3.64236511,49.75,45.2145759,23.7431295,0.0460122699,327,0.879288122,5,641.772578,659.105371,707.130549,190.71482,3.71,2198.72332,5,-7.9458042,8.33471074,16.8125793,61.6932162,0.272519092,1.76218533,1.06558464
2007_v2_07211003_ECG,485,785,,,,,,,,,,,,,2,,,,,,,2,,,,,,,
2007_v2_07211003_ECG,490,790,,,,,,,,,,,,,2,,,,,,,2,,,,,,,
2007_v2_07211003_ECG,495,795,,,,,,,,,,,,,2,,,,,,,2,,,,,,,
2007_v2_07211003_ECG,500,800,,,,,,,,,,,,,2,,,,,,,2,,,,,,,
2007_v2_07211003_ECG,505,805,,,,,,,,,,,,,2,,,,,,,2,,,,,,,
2007_v2_07211003_ECG,510,810,,,,,,,,,,,,,2,,,,,,,2,,,,,,,
2007_v2_07211003_ECG,515,815,,,,,,,,,,,,,2,,,,,,,2,,,,,,,
2007_v2_07211003_ECG,520,820,,,,,,,,,,,,,2,,,,,,,2,,,,,,,
2007_v2_07211003_ECG,525,825,,,,,,,,,,,,,2,,,,,,,2,,,,,,,
2007_v2_07211003_ECG,530,830,,,,,,,,,,,,,2,,,,,,,2,,,,,,,
2007_v2_07211003_ECG,535,835,,,,,,,,,,,,,2,,,,,,,2,,,,,,,
2007_v2_07211003_ECG,540,840,,,,,,,,,,,,,2,,,,,,,2,,,,,,,
2007_v2_07211003_ECG,545,845,,,,,,,,,,,,,2,,,,,,,2,,,,,,,
2007_v2_07211003_ECG,550,850,,,,,,,,,,,,,2,,,,,,,2,,,,,,,
2007_v2_07211003_ECG,555,855,,,,,,,,,,,,,2,,,,,,,2,,,,,,,
2007_v2_07211003_ECG,560,860,,,,,,,,,,,,,2,,,,,,,2,,,,,,,
2007_v2_07211003_ECG,565,865,,,,,,,,,,,,,2,,,,,,,2,,,,,,,
2007_v2_07211003_ECG,570,870,,,,,,,,,,,,,2,,,,,,,2,,,,,,,
2007_v2_07211003_ECG,575,875,,,,,,,,,,,,,2,,,,,,,2,,,,,,,
2007_v2_07211003_ECG,580,880,,,,,,,,,,,,,2,,,,,,,2,,,,,,,
2007_v2_07211003_ECG,585,885,,,,,,,,,,,,,2,,,,,,,2,,,,,,,
2007_v2_07211003_ECG,590,890,,,,,,,,,,,,,2,,,,,,,2,,,,,,,
2007_v2_07211003_ECG,595,895,,,,,,,,,,,,,2,,,,,,,2,,,,,,,
2007_v2_07211003_ECG,600,900,,,,,,,,,,,,,2,,,,,,,2,,,,,,,
2007_v2_07211003_ECG,605,905,,,,,,,,,,,,,2,,,,,,,2,,,,,,,
2007_v2_07211003_ECG,610,910,,,,,,,,,,,,,2,,,,,,,2,,,,,,,
2007_v2_07211003_ECG,615,915,,,,,,,,,,,,,2,,,,,,,2,,,,,,,
2007_v2_07211003_ECG,620,920,,,,,,,,,,,,,2,,,,,,,2,,,,,,,
2007_v2_07211003_ECG,625,925,,,,,,,,,,,,,2,,,,,,,2,,,,,,,
2007_v2_07211003_ECG,630,930,,,,,,,,,,,,,2,,,,,,,2,,,,,,,
2007_v2_07211003_ECG,635,935,,,,,,,,,,,,,2,,,,,,,2,,,,,,,
2007_v2_07211003_ECG,640,940,,,,,,,,,,,,,2,,,,,,,2,,,,,,,
2007_v2_07211003_ECG,645,945,,,,,,,,,,,,,2,,,,,,,2,,,,,,,
2007_v2_07211003_ECG,650,950,,,,,,,,,,,,,2,,,,,,,2,,,,,,,
2007_v2_07211003_ECG,655,955,,,,,,,,,,,,,2,,,,,,,2,,,,,,,
2007_v2_07211003_ECG,660,960,,,,,,,,,,,,,2,,,,,,,2,,,,,,,
2007_v2_07211003_ECG,665,965,,,,,,,,,,,,,2,,,,,,,2,,,,,,,
2007_v2_07211003_ECG,670,970,,,,,,,,,,,,,2,,,,,,,2,,,,,,,
2007_v2_07211003_ECG,675,975,914.746177,915,898,1.67487709,0.122806935,2.70721957,53.75,40.9252623,22.7354079,0.0398773006,327,0.864001862,5,645.559654,600.228523,401.357237,199.189452,2.01,1846.33487,5,-7.8759542,7.69886364,16.1006317,55.5924801,0.289618877,1.78805359,1.08144401
2007_v2_07211003_ECG,680,980,916.018405,917,898,1.62367966,0.0930777719,2.77850236,51,40.2949086,22.6746215,0.04,326,0.868282105,5,591.24888,582.391014,411.037818,200.586283,2.05,1785.26399,5,-7.78543307,7.97037037,16.0572258,54.6765472,0.293676661,1.78798182,1.08752489
2007_v2_07211003_ECG,685,985,917.033846,917,904,1.56584762,0.0819166689,2.89166214,49,39.5707925,22.6553621,0.0401234568,325,0.868914584,5,525.529124,590.182293,398.070174,201.031696,1.98,1714.81329,5,-7.75581395,8.125,16.0444912,53.6122144,0.299269324,1.89145979,0.973740873
2007_v2_07211003_ECG,690,990,917.212308,917,904,1.55705664,0.0752655949,2.91592623,48.25,39.459557,22.592881,0.0401234568,325,0.869170994,5,491.755687,608.106163,399.666187,202.566989,1.97,1702.09503,5,-7.8372093,7.90601504,16.000252,53.4612496,0.299286907,1.90885153,0.979045419
2007_v2_07211003_ECG,695,995,916.680982,917,904,1.58149176,0.0878592498,2.85615317,49,39.7679741,22.6017698,0.04,326,0.869170994,5,478.479239,633.272279,407.33632,205.829671,1.98,1724.91751,5,-7.78149606,7.97610294,16.0061814,53.9146147,0.296880197,1.96272681,0.980515548
2007_v2_07211003_ECG,700,1000,916.624615,917,904,1.59021668,0.0892241288,2.83614648,50.25,39.8775209,22.4449945,0.037037037,325,0.869170994,5,452.154384,684.459581,392.4538,203.070071,1.93,1732.13784,5,-7.93503937,7.87777778,15.8950856,54.1089605,0.293760691,1.94299687,0.97396937
2007_v2_07211003_ECG,705,1005,916.346626,916,904,1.58113179,0.108506536,2.86126376,49,39.7634479,22.346502,0.0369230769,326,0.869170994,5,469.56777,669.930687,381.452075,200.607471,1.9,1721.558,5,-7.9140625,7.86111111,15.8255347,53.9612456,0.293275935,1.88583203,0.971829706
2007_v2_07211003_ECG,710,1010,917.513846,917,904,1.51364564,0.112001228,2.95182548,45.5,38.9055991,22.3490133,0.037037037,325,0.869170994,5,404.141365,670.532455,354.45538,210.403964,1.68,1639.53316,5,-7.90873016,7.77941176,15.8268221,52.6953791,0.300345541,1.88894585,0.988108552
2007_v2_07211003_ECG,715,1015,918.601852,918,904,1.50840136,0.0683791902,2.94517199,45.5,38.8381431,22.4438756,0.0371517028,324,0.869170994,5,369.877769,685.1248,372.67355,206.01404,1.81,1633.69016,5,-7.95634921,7.85,15.8946448,52.5753078,0.302321478,1.86256983,0.976330152
2007_v2_07211003_ECG,720,1020,920.693498,919,904,1.51062316,0.14243528,3.04646132,46,38.8667359,23.648106,0.0465838509,323,0.868914584,5,302.987841,695.174784,379.209517,243.319769,1.56,1620.69191,5,-8.036,7.69074074,16.7432371,52.353704,0.319809982,1.85648066,0.958686107
2007_v2_07211003_ECG,725,1025,922.919505,921,904,1.41106182,0.208540155,2.99421078,46.75,37.5641029,23.874998,0.0465838509,323,0.868914584,5,223.51886,701.552583,334.04871,245.865553,1.36,1504.98571,5,-8.23015873,7.75746269,16.9071028,50.3614289,0.335715311,1.83959614,0.969294093
2007_v2_07211003_ECG,730,1030,924.643963,922,904,1.38122999,0.205693806,2.97749026,46,37.1649026,23.9279457,0.0465838509,323,0.868914584,5,177.044928,719.711755,329.180139,240.088726,1.37,1466.02555,5,-8.25198413,7.7108209,16.9455607,49.7524667,0.340597399,1.84464411,0.969838646
2007_v2_07211003_ECG,735,1035,925.593168,923.5,904,1.35384332,0.17885846,3.02497906,46,36.7946099,23.9168471,0.046728972,322,0.868914584,5,147.461317,693.807848,345.871972,245.729285,1.41,1432.87042,5,-7.91869919,7.65992647,16.9364616,49.202062,0.344222597,1.82484886,0.969123477
2007_v2_07211003_ECG,740,1040,927.697819,924,904,1.28373653,0.255488328,3.01687312,46.25,35.8292691,24.1702943,0.046875,321,0.868914584,5,95.819944,656.734635,352.624747,240.95357,1.46,1346.1329,5,-7.78629032,7.44029851,17.1136596,47.6927217,0.358831684,1.82668561,0.96483573
2007_v2_07211003_ECG,745,1045,929.089783,925,904,1.21895775,0.306778373,2.97803277,47,34.9135755,24.4498473,0.0465838509,323,0.868914584,5,66.8428339,636.72763,325.998356,246.806178,1.32,1276.375,5,-7.772,7.6537037,17.3145756,46.2398203,0.37445162,1.80633205,0.965091162
2007_v2_07211003_ECG,750,1050,930.247678,926,904,1.17925524,0.302925644,3.02000567,47,34.3402859,24.4692734,0.0465838509,323,0.868914584,5,45.8343511,630.395951,313.781475,239.290547,1.31,1229.30232,5,-8.01388889,7.83208955,17.3290236,45.367559,0.381969496,1.82635091,0.97789009
2007_v2_07211003_ECG,755,1055,930.937888,928,904,1.1488684,0.307993995,3.06507454,47,33.8949613,24.3227904,0.046728972,322,0.871822147,5,32.5939889,620.810399,305.730412,237.037293,1.29,1196.17209,5,-8.06944444,7.95112782,17.2256609,44.7326884,0.385079938,1.74575096,0.970879505
2007_v2_07211003_ECG,760,1060,931.431677,928,904,1.16031463,0.302358775,3.01508163,48,34.0633914,24.8971717,0.0498442368,322,0.872889014,5,23.9280366,594.63553,321.146446,264.813333,1.21,1204.52335,5,-8.31445312,8.1259542,17.6301836,44.8308587,0.393260003,1.74823805,0.960427506
2007_v2_07211003_ECG,765,1065,933.310559,929.5,904,1.14245154,0.390957379,2.88291545,49,33.8001707,25.0685043,0.0498442368,322,0.877134657,5,11.6380848,583.913325,334.183115,250.043318,1.34,1179.77784,5,-8.33398437,8.47328244,17.7534947,44.3814883,0.400020265,1.7507596,0.963754761
2007_v2_07211003_ECG,770,1070,934.214953,930,904,1.19895053,0.453161229,3.05030947,49.5,34.625865,25.6304263,0.05625,321,0.883355984,5,9.04159729,597.946108,347.047921,280.653013,1.24,1234.68864,5,-8.72851563,8.77692308,18.1491119,45.4808838,0.399049235,1.73607967,0.949383902
2007_v2_07211003_ECG,775,1075,935.489097,931,904,1.33841316,0.68198686,3.84787282,49.25,36.5843295,25.7502427,0.05625,321,0.887861377,5,19.3756073,681.962693,416.092947,254.920993,1.63,1372.35224,5,-8.83531746,8.88257576,18.2364042,48.4175576,0.376648577,1.73669969,0.941089342
2007_v2_07211003_ECG,780,1080,936.58125,933,904,1.35955451,0.614786166,3.69567643,51,36.8721373,25.6806405,0.0564263323,320,0.893551394,5,25.2837082,717.88464,395.563927,260.722572,1.52,1399.45485,5,-8.97637795,8.75381679,18.1872567,48.870571,0.372151508,1.75552778,0.948491651
2007_v2_07211003_ECG,785,1085,937.034375,933,961,1.3737637,0.579912854,3.60343941,51,37.0643185,25.78419,0.0564263323,320,0.902876265,5,32.5816942,730.895645,390.72851,261.116528,1.5,1415.32238,5,-8.90079365,8.60150376,18.2606147,49.1332612,0.371654848,1.80608943,0.958281845
2007_v2_07211003_ECG,790,1090,937.6875,934,961,1.38814655,0.540560943,3.51703955,50.5,37.2578388,25.7580374,0.0564263323,320,0.912562089,5,40.16324,729.376425,395.755652,266.047305,1.49,1431.34262,5,-8.81299213,9.15340909,18.2413676,49.4322325,0.369017676,1.81987157,0.956993714
2007_v2_07211003_ECG,795,1095,939.460815,935,961,1.49418635,0.530872048,3.34214422,51,38.6547067,25.8234816,0.0566037736,319,0.924031711,5,68.9240674,756.816914,454.509145,261.896467,1.74,1542.14659,5,-8.99609375,8.925,18.2878911,51.5162668,0.354992555,1.8189336,0.924150387
2007_v2_07211003_ECG,800,1100,940.818182,937,961,1.54712407,0.4882583,3.19845378,52.5,39.3334981,25.9869948,0.0566037736,319,0.934339955,5,95.00296,795.840449,438.513203,269.211319,1.63,1598.56793,5,-9.30905512,9.99427481,18.4030553,52.4935777,0.350577273,1.83120393,0.921761188
2007_v2_07211003_ECG,805,1105,942.465409,938,961,1.6021171,0.457204133,3.10664686,52,40.026455,26.565733,0.0662460568,318,0.945719265,5,127.323134,820.038335,428.025331,278.848336,1.53,1654.23514,5,-10.0511811,10.2826923,18.8125023,53.3884252,0.35237043,1.82421636,1.06151954
2007_v2_07211003_ECG,810,1110,944.075472,938.5,961,1.73275138,0.494926659,3.10091386,57,41.6263304,26.7461486,0.0694006309,318,0.95829991,5,182.58583,858.729616,459.897551,290.716642,1.58,1791.92964,5,-10.0390625,10.2093023,18.9396272,55.7386158,0.339793642,1.84745454,1.05097683
2007_v2_07211003_ECG,815,1115,945.643533,940,961,1.72490101,0.475074711,3.06082435,56,41.5319276,27.5504715,0.0759493671,317,0.968950074,5,205.671906,826.685608,431.230599,317.726289,1.36,1781.3144,5,-9.87015504,10.011811,19.5094639,55.4002061,0.352155079,1.83947746,1.03748516
2007_v2_07211003_ECG,820,1120,946.9653,942,961,1.73309689,0.441079455,3.00343275,55.25,41.6304803,27.6901938,0.0759493671,317,0.972481546,5,234.295334,817.807178,437.702335,302.066004,1.45,1791.87085,5,-9.87890625,10.3661417,19.6109739,55.5121923,0.353273273,1.87135267,1.04358511
2007_v2_07211003_ECG,825,1125,947.047468,943,961,1.75475012,0.424818724,2.94756657,56.5,41.8897377,27.7870588,0.0761904762,316,0.973507187,5,227.953298,813.502957,468.746544,303.824559,1.54,1814.02736,5,-9.75968992,10.508,19.6787302,55.8770778,0.352178943,1.90241691,1.04763513
2007_v2_07211003_ECG,830,1130,948.481013,946.5,961,1.77639646,0.365591274,2.86230559,58,42.1473186,27.8008793,0.0761904762,316,0.973951631,5,267.219247,758.948913,503.139893,310.235375,1.62,1839.54343,5,-9.74045802,10.6890244,19.6876196,56.2600263,0.349939751,1.90278312,1.03715984
2007_v2_07211003_ECG,835,1135,950.536508,948,961,1.77705838,0.34230395,2.84219986,58.75,42.1551702,27.9656295,0.076433121,315,0.973695221,5,317.258299,721.281394,497.444833,302.308769,1.65,1838.2933,5,-9.82061069,10.7663934,19.8059289,56.2302581,0.352229024,1.92702019,1.03827045
2007_v2_07211003_ECG,840,1140,950.990506,948.5,961,1.77670785,0.316459783,2.8236256,59,42.1510124,27.8882691,0.0761904762,316,0.97241317,5,329.968249,721.243883,490.091355,297.363504,1.65,1838.66699,5,-9.87310606,11.0286885,19.7513604,56.243217,0.351177643,1.91119235,1.0394736
2007_v2_07211003_ECG,845,1145,950.702532,948,961,1.78487631,0.330311276,2.81081441,59,42.2477965,27.9172246,0.0761904762,316,0.972156759,5,308.189826,740.231772,499.101591,299.488805,1.67,1847.01199,5,-9.90648855,10.8455285,19.7717526,56.3811176,0.350680396,1.8918369,1.03104423
2007_v2_07211003_ECG,850,1150,951.377778,948,961,1.83257339,0.315296125,2.73760694,60.75,42.8085668,28.085232,0.076433121,315,0.968625013,5,343.721338,709.674747,542.80056,302.576694,1.79,1898.77334,5,-9.89473684,10.5145833,19.8906742,57.1796105,0.347863059,1.87299136,1.00950358
2007_v2_07211003_ECG,855,1155,951.838095,948,961,1.84905332,0.286314876,2.68204069,63.75,43.00062,27.9292213,0.076433121,315,0.965093267,5,369.078168,701.447404,549.594217,299.573418,1.83,1919.69321,5,-9.81390977,10.7458678,19.7799211,57.505316,0.343966828,1.85388962,1.01361924
2007_v2_07211003_ECG,860,1160,952.060317,949,961,1.84457915,0.274401955,2.68699783,63.75,42.948564,27.7829394,0.0732484076,315,0.965093267,5,360.003021,708.748191,546.571713,298.557929,1.83,1913.88085,5,-9.56439394,10.9180328,19.67673,57.4628976,0.342424953,1.8377908,1.01210651
2007_v2_07211003_ECG,865,1165,951.873418,948,961,1.86238393,0.304772684,2.69065447,63.5,43.1553464,28.0024942,0.0761904762,316,0.964580447,5,366.169054,700.573818,551.537028,311.996138,1.77,1930.27604,5,-9.68181818,10.9180328,19.831669,57.7189116,0.343590489,1.84216654,1.01682019
2007_v2_07211003_ECG,870,1170,952.596825,948,961,1.90174458,0.274497178,2.60512673,65,43.6089965,27.8287529,0.0732484076,315,0.95901493,5,408.278442,684.878396,590.154513,293.592511,2.01,1976.90386,5,-10.0230769,10.6727642,19.7080697,58.4386956,0.33724349,1.84055609,1.00474107
2007_v2_07211003_ECG,875,1175,951.955556,948,961,1.86027827,0.291898085,2.66181649,64,43.1309433,27.3032627,0.0668789809,315,0.953907996,5,391.178285,683.272975,595.828049,262.47153,2.27,1932.75084,5,-10.1686047,10.7459677,19.3366163,57.8502534,0.334252922,1.82412768,1.00455765
2007_v2_07211003_ECG,880,1180,950.11746,947,961,2.05245431,0.0948622987,2.94960573,64.75,45.3040209,27.0592061,0.0636942675,315,0.953907996,5,311.034473,835.79044,693.502322,285.796175,2.43,2126.12341,5,-10.2617188,10.856,19.1590319,61.137878,0.313374172,1.79045874,0.977832725
2007_v2_07211003_ECG,885,1185,946.632911,944,961,2.43171879,-0.265806956,3.62964423,64,49.3124608,26.8003791,0.0603174603,316,0.950850807,5,250.467344,1269.08596,783.951093,285.773812,2.74,2589.2782,5,-10.278626,11.1239837,18.9747828,67.1073408,0.282752715,1.59275909,1.00338842
2007_v2_07211003_ECG,890,1190,942.185535,940,961,3.11772257,-0.728206723,4.5082892,64,55.8365702,26.6447597,0.0599369085,318,0.946942443,5,239.859009,2148.8005,771.531191,290.651821,2.65,3450.84252,5,-10.0769231,10.9702381,18.8666554,76.6778615,0.246050881,1.46103305,1.02077185
2007_v2_07211003_ECG,895,1195,939,940,961,3.77009464,-0.947372635,4.62047431,65,61.4010964,26.5456574,0.0599369085,318,0.945624779,5,286.970753,3022.6352,717.578205,274.684768,2.61,4301.86893,5,-9.86153846,10.7738095,18.7953458,84.7757291,0.221706684,1.43880573,1.03855239
2007_v2_07211003_ECG,900,1200,935.515625,938,933,4.1904637,-0.896054819,4.08711828,69,64.7337911,26.435288,0.0595611285,320,0.944837742,5,417.334337,3519.86481,585.247602,280.543092,2.09,4802.98985,5,-10.3030303,10.6547619,18.7176262,89.6134916,0.208870627,1.44729711,1.04267066
2007_v2_07211003_ECG,905,1205,932.64486,937,933,4.51585473,-0.833292226,3.6931504,72.25,67.2001096,26.2257626,0.059375,321,0.944837742,5,569.180444,3750.20446,616.200578,252.786719,2.44,5188.3722,5,-10.3824627,10.708,18.5687476,93.2036001,0.199227794,1.36271156,1.0442979
2007_v2_07211003_ECG,910,1210,929.583851,934.5,933,4.72658017,-0.760903545,3.40640197,72,68.7501285,26.0269451,0.0591900312,322,0.944837742,5,755.598767,3838.04476,608.48871,237.565771,2.56,5439.69801,5,-10.3566176,10.4193548,18.4300482,95.46462,0.19305632,1.34695862,1.0306385
2007_v2_07211003_ECG,915,1215,928.185759,934,961,4.7581393,-0.703857945,3.30076777,73,68.9792672,25.8541658,0.0559006211,323,0.944837742,5,849.935237,3835.11399,552.239556,230.150645,2.4,5467.43943,5,-10.307971,10.4552846,18.3096807,95.8177133,0.191088684,1.35058146,1.02827185
2007_v2_07211003_ECG,920,1220,927.555901,933.5,961,4.80037849,-0.677658258,3.23408091,75,69.2847637,25.4899039,0.0529595016,322,0.944837742,5,919.060775,3856.86956,518.586912,222.586498,2.33,5517.10375,5,-10.2445255,10.4756098,18.050681,96.3064374,0.187429641,1.33018978,1.01613761
2007_v2_07211003_ECG,925,1225,925.860681,933,961,4.81148674,-0.618479392,3.14948487,75.75,69.3648812,25.2343057,0.0527950311,323,0.94789781,5,1031.71682,3764.74125,508.846635,214.371936,2.37,5519.67664,5,-10.1321429,10.4090909,17.8696566,96.4554242,0.185263366,1.32654193,1.0179958
2007_v2_07211003_ECG,930,1230,924.795666,931,914,4.86859166,-0.575237526,3.05209226,77.75,69.775294,24.8969928,0.0527950311,323,0.94979026,5,1140.02841,3718.00455,522.519869,207.100552,2.52,5587.65338,5,-10.1801471,10.1666667,17.6320836,97.089098,0.181607245,1.28489771,0.997527432
2007_v2_07211003_ECG,935,1235,924.20679,930.5,914,4.90200974,-0.552735299,2.99286112,84.5,70.0143538,24.7858943,0.0526315789,324,0.950046671,5,1231.90748,3679.74187,507.11233,208.666483,2.43,5627.42816,5,-10.0698529,10.3669355,17.5530973,97.446951,0.180129774,1.21398808,0.980763203
2007_v2_07211003_ECG,940,1240,923.015432,930.5,924,5.01969326,-0.512843917,2.85495531,93,70.8497936,24.7255524,0.0526315789,324,0.950303081,5,1382.8078,3665.59962,517.630338,203.843322,2.54,5769.88108,5,-10.0333333,10.5262097,17.5103476,98.6548237,0.177491043,1.21482825,0.979266485
2007_v2_07211003_ECG,945,1245,921.556923,930,924,5.16161789,-0.47384041,2.71442247,98,71.8444006,24.650395,0.0524691358,325,0.950303081,5,1563.40757,3649.74256,517.603742,211.30427,2.45,5942.05814,5,-10.108209,10.598,17.4555173,100.092661,0.174393579,1.19669032,0.96884671
2007_v2_07211003_ECG,950,1250,920.123077,929,924,5.25649715,-0.424341219,2.6066268,102.5,72.5017045,24.4830503,0.0524691358,325,0.950303081,5,1709.66355,3646.55954,508.011543,192.538228,2.64,6056.77286,5,-10.1259259,10.5243902,17.3384132,101.05629,0.171571836,1.17912972,0.965882786
2007_v2_07211003_ECG,955,1255,918.478528,926,924,5.32212108,-0.3691331,2.52147005,107,72.9528689,24.3647917,0.0523076923,326,0.950303081,5,1841.05902,3578.82951,511.39539,195.722083,2.61,6127.006,5,-9.97407407,10.483871,17.2539116,101.717966,0.169625015,1.14886465,0.954952057
2007_v2_07211003_ECG,960,1260,916.440367,924,924,5.41381162,-0.30815939,2.42282274,108.75,73.5786084,24.0293787,0.0490797546,327,0.950080859,5,2009.30178,3511.30524,530.039105,185.011679,2.86,6235.6578,5,-9.99444444,10.38,17.0165247,102.655059,0.165764113,1.02138294,0.910325645
2007_v2_07211003_ECG,965,1265,914.675841,924,961,5.55563693,-0.257874593,2.31243041,112.75,74.5361451,23.8670911,0.0490797546,327,0.948505151,5,2202.61239,3485.9113,532.359399,183.614596,2.9,6404.49769,5,-9.73369565,10.6905738,16.9015873,104.046193,0.162443112,0.975369591,0.89617341
2007_v2_07211003_ECG,970,1270,912.277439,921.5,961,5.8365864,-0.233155502,2.20442125,118,76.3975549,23.8516055,0.0489296636,328,0.944185692,5,2500.04929,3490.90399,578.560305,190.373391,3.04,6759.88697,5,-9.67142857,10.5702479,16.8886005,106.714329,0.158259914,0.978489335,0.896505028
2007_v2_07211003_ECG,975,1275,910.134146,919,961,6.06407981,-0.194749399,2.10076458,125,77.8722018,23.8495539,0.0489296636,328,0.940010253,5,2771.71364,3546.39051,546.927861,181.863837,3.01,7046.89584,5,-9.68115942,10.5386179,16.8878223,108.82537,0.15518277,0.965674502,0.889191286
2007_v2_07211003_ECG,980,1280,908.057751,916,961,6.20133507,-0.14194967,2.02388809,132.25,78.748556,23.8031178,0.0487804878,329,0.935483421,5,2978.33674,3547.23787,503.869281,182.178448,2.77,7211.62234,5,-9.85283688,10.677686,16.8551694,110.084392,0.153111346,0.951510129,0.882886936
2007_v2_07211003_ECG,985,1285,905.722054,914,789,6.40285585,-0.099130779,1.94217522,135.75,80.017847,23.7162519,0.0484848485,331,0.931904062,5,3269.36714,3484.76504,536.772543,173.727397,3.09,7464.63212,5,-9.83802817,10.4528689,16.7946787,111.909117,0.150074267,0.843369143,0.845301392
2007_v2_07211003_ECG,990,1290,905.254545,914,789,6.44705963,-0.0835291304,1.92112869,136,80.293584,24.0606503,0.0486322188,330,0.931904062,5,3351.78417,3488.31698,513.84027,172.107122,2.99,7526.04855,5,-9.7027972,10.1104167,17.0392794,112.266568,0.151775188,0.86225369,0.855231621
2007_v2_07211003_ECG,995,1295,905.345455,914,789,6.44167969,-0.0866153303,1.92452796,136,80.2600753,24.0706912,0.0486322188,330,0.931904062,5,3414.81264,3448.78695,501.561926,168.174073,2.98,7533.33559,5,-9.59965035,9.89583333,17.046279,112.217573,0.151903828,0.870342503,0.853684668
2007_v2_07211003_ECG,1000,1300,905,914,789,6.44498788,-0.0759366153,1.91709488,135.75,80.2806819,24.0229057,0.0484848485,331,0.931904062,5,3517.74535,3341.64083,521.373233,168.830643,3.09,7549.59006,5,-9.53873239,9.70286885,17.0122307,112.252215,0.151553631,0.87477087,0.860528771
2007_v2_07211003_ECG,1005,1305,904.069486,913,789,6.4821194,-0.0445761198,1.89519872,135.75,80.5116103,24.0701626,0.0484848485,331,0.931904062,5,3602.79749,3286.40605,530.233761,174.083208,3.05,7593.5205,5,-9.39285714,9.51814516,17.0450915,112.577545,0.151407561,0.852073738,0.859401167
2007_v2_07211003_ECG,1010,1310,903.220544,907,789,6.50221485,-0.0152617792,1.88355646,135.75,80.6363122,24.0743168,0.0484848485,331,0.931904062,5,3646.63303,3261.02749,535.224518,174.323134,3.07,7617.20817,5,-9.40892857,9.19153226,17.0481632,112.755443,0.151195923,0.843867822,0.853460062
2007_v2_07211003_ECG,1015,1315,901.759036,897.5,789,6.47996593,0.0325735137,1.89034084,135.5,80.4982356,23.9283295,0.0483383686,332,0.931904062,5,3640.1164,3221.54195,545.626126,168.609996,3.24,7575.89447,5,-8.99107143,9.324,16.9445704,112.573591,0.150519942,0.792864646,0.835705181
2007_v2_07211003_ECG,1020,1320,899.276276,882,789,6.43639332,0.0875701386,1.89357105,134.75,80.2271358,22.6252871,0.0391566265,333,0.932160472,5,3629.14616,3176.9758,554.124244,151.463246,3.66,7511.70945,5,-8.81785714,9.43055556,16.0192749,112.321723,0.142619562,0.780771998,0.826505114
2007_v2_07211003_ECG,1025,1325,895.934132,877,789,6.58606772,0.148254376,1.88132895,141,81.1545915,22.3955701,0.039039039,334,0.932160472,5,3745.07016,3184.3227,614.128808,152.911397,4.02,7696.43307,5,-8.9751773,9.50992063,15.8556724,113.669403,0.139489362,0.770091096,0.813836668
2007_v2_07211003_ECG,1030,1330,893.946269,875,789,6.52174561,0.205872313,1.91927942,139.25,80.7573254,22.4088306,0.0389221557,335,0.932160472,5,3680.16864,3234.8002,546.855047,141.814629,3.86,7603.63851,5,-8.8221831,9.404,15.8684345,113.100327,0.140304055,0.7804838,0.815081214
2007_v2_07211003_ECG,1035,1335,892.576119,872,789,6.52410122,0.250209148,1.93311064,139.25,80.7719086,22.3576669,0.0389221557,335,0.932160472,5,3674.83591,3229.52142,549.599788,140.286559,3.92,7594.24368,5,-8.98415493,9.21,15.830899,113.126412,0.139939902,0.770648676,0.803798614
2007_v2_07211003_ECG,1040,1340,890.428571,867.5,789,6.46166055,0.309636757,1.97805821,137.5,80.3844547,22.0464909,0.0388059701,336,0.932160472,5,3604.62569,3200.26409,564.346415,130.692503,4.32,7499.92869,5,-8.5334507,8.904,15.6103423,112.6039,0.138630565,0.76334054,0.78665563
2007_v2_07211003_ECG,1045,1345,888.08631,865.5,789,6.46975671,0.374056463,2.012857,138.5,80.4347979,21.8171506,0.0388059701,336,0.932160472,5,3577.66564,3198.48329,582.335123,137.014406,4.25,7495.49845,5,-7.97222222,8.04065041,15.4472159,112.698256,0.137067036,0.755573808,0.779981618
2007_v2_07211003_ECG,1050,1350,886.587537,865,789,6.41288592,0.424052364,2.0659331,136.25,80.0804965,21.7808347,0.0386904762,337,0.932160472,5,3496.3061,3234.75642,551.130589,124.27975,4.43,7406.47286,5,-8.07291667,7.96370968,15.4236403,112.195736,0.137470825,0.759348178,0.781421239
2007_v2_07211003_ECG,1055,1355,885.446746,864,789,6.37392742,0.46573748,2.10873863,136,79.8368801,21.7368945,0.0385756677,338,0.932160472,5,3435.45133,3248.76886,533.234472,122.86988,4.34,7340.32453,5,-8.08216783,8.29761905,15.3925735,111.85224,0.137615246,0.807667091,0.794249314
2007_v2_07211003_ECG,1060,1360,884.319527,864,789,6.30898959,0.502066388,2.1629424,132,79.4291482,20.9880565,0.0356083086,338,0.932160472,5,3357.34421,3242.21163,533.703757,116.868634,4.57,7250.12823,5,-8.13461538,7.93110236,14.8602767,111.342496,0.133464555,0.763725067,0.786385266
2007_v2_07211003_ECG,1065,1365,882.631268,864,789,6.12258849,0.54932553,2.27699432,126.75,78.2469711,20.3627604,0.0325443787,339,0.932160472,5,3116.34369,3259.72664,529.528805,99.3762672,5.33,7004.9754,5,-8.16840278,7.79330709,14.4198822,109.714374,0.131431111,0.752462184,0.777992117
2007_v2_07211003_ECG,1070,1370,881.359882,864,789,5.97779318,0.573168932,2.33481551,121.5,77.3161896,19.7135552,0.0295857988,339,0.936755506,5,2954.43102,3229.68592,504.689637,138.761572,3.64,6827.56815,5,-8.03472222,7.71653543,13.9533861,108.447634,0.128664734,0.747399079,0.774484409
2007_v2_07211003_ECG,1075,1375,879.141176,863,789,5.64922485,0.584956324,2.36725267,114.5,75.1613255,19.2737613,0.0265486726,340,0.944721254,5,2646.7741,3245.70649,454.177344,99.8852817,4.55,6446.54322,5,-7.89236111,7.77148438,13.6477043,105.414372,0.129467206,0.739039614,0.77039325
2007_v2_07211003_ECG,1080,1380,877.240469,861,789,5.49897142,0.647208944,2.50440618,106.75,74.1550498,19.1405022,0.0264705882,341,0.95146145,5,2445.49581,3262.55443,441.736367,99.3287237,4.45,6249.11533,5,-7.93006993,7.36627907,13.5523189,103.991718,0.130321136,0.733616951,0.756476553
2007_v2_07211003_ECG,1085,1385,875.502924,859,789,5.37776979,0.710115886,2.6413129,91,73.3332788,19.038239,0.0263929619,342,0.951717861,5,2269.58188,3270.69814,442.916163,99.9750112,4.43,6083.17119,5,-7.31818182,6.87884615,13.4793513,102.829211,0.131084845,0.806023742,0.79885969
2007_v2_07211003_ECG,1090,1390,874.166181,859,789,5.23936704,0.758313672,2.78061093,84.25,72.3834721,19.0448071,0.0263157895,343,0.951717861,5,2075.64126,3241.08096,470.764948,110.269105,4.27,5897.75627,5,-6.83510638,6.78947368,13.4831929,101.473827,0.132873602,0.815046643,0.800403455
2007_v2_07211003_ECG,1095,1395,872.658892,859,789,4.94383945,0.755388697,2.88474428,81.25,70.3124416,19.0318293,0.0263157895,343,0.951717861,5,1762.06924,3216.72197,449.309501,122.370162,3.67,5550.47087,5,-6.69326241,6.2424812,13.4756629,98.5194671,0.136781727,0.814668213,0.803092392
2007_v2_07211003_ECG,1100,1400,871.180233,859,789,4.69559424,0.776689131,3.04488764,75,68.5244062,18.9425247,0.0262390671,344,0.947575516,5,1511.77184,3164.51978,479.336753,96.0501028,4.99,5251.67847,5,-6.67361111,6.18320611,13.4122041,95.9755243,0.139746088,0.818357617,0.810197251
2007_v2_07211003_ECG,1105,1405,868.455072,858,789,4.44466731,0.823506646,3.22434012,69.75,66.6683381,18.1453274,0.0174418605,345,0.938448532,5,1271.76729,3049.5093,551.3497,84.8012286,6.5,4957.42752,5,-6.53275862,6.06060606,12.8434825,93.4043873,0.137504061,0.82696868,0.819291034
2007_v2_07211003_ECG,1110,1410,864.953757,856,789,4.0979109,0.80987789,3.23695584,61,64.0149272,17.7017153,0.0144927536,346,0.929168838,5,1001.95451,3003.78803,483.404843,95.9656094,5.04,4585.11299,5,-6.49315068,6.02651515,12.527628,89.6598033,0.139724019,0.911950912,0.851182963
2007_v2_07211003_ECG,1115,1415,861.760807,854,789,4.00098019,0.823117021,3.34256872,62,63.2533018,16.6208136,0.00867052023,347,0.921425452,5,834.550219,3099.54542,463.062506,92.6294415,5,4489.78758,5,-6.14310345,6.36380597,11.7588495,88.6774484,0.132602479,0.905118369,0.843562572
2007_v2_07211003_ECG,1120,1420,859.735632,853,789,3.82416046,0.822452148,3.44993018,63,61.8397967,17.0934033,0.0115273775,348,0.921169042,5,668.26588,3080.04874,459.737748,83.9505473,5.48,4292.00292,5,-6.07312925,5.82142857,12.1042906,86.6129728,0.139751474,0.904144191,0.85139678
2007_v2_07211003_ECG,1125,1425,859.283668,853,789,3.74046815,0.828581775,3.53509864,62.5,61.1593668,16.890962,0.0114942529,349,0.921169042,5,572.644892,2991.23195,537.945509,83.7929321,6.42,4185.61528,5,-6.25510204,5.85447761,11.9582497,85.6617567,0.139598464,0.911344689,0.861327399
2007_v2_07211003_ECG,1130,1430,858.389685,853,789,3.58057185,0.809383041,3.58971942,62.25,59.8378797,17.6283471,0.0143678161,349,0.921169042,5,436.582408,2917.14696,529.722987,113.678165,4.66,3997.13052,5,-6.21598639,5.6511194,12.4819569,83.6979357,0.149131001,1.01303416,0.873608009
2007_v2_07211003_ECG,1135,1435,857.638968,853,789,3.38967963,0.726019304,3.43990647,62.25,58.2209552,17.7010617,0.0143678161,349,0.921425452,5,336.825864,2904.23017,451.710368,101.333764,4.46,3794.10017,5,-6.16554054,5.66353383,12.5345572,81.377172,0.154030386,1.01215967,0.873258072
2007_v2_07211003_ECG,1140,1440,857.137931,853,789,3.32017112,0.715466497,3.46488494,62.5,57.6209261,17.5727389,0.0115273775,348,0.922707503,5,294.095389,2870.2996,453.908344,98.8152925,4.59,3717.11863,5,-6.12583893,5.07633588,12.4436331,80.5325912,0.154516736,1.00966838,0.864643671
2007_v2_07211003_ECG,1145,1445,857.515759,853,789,3.35334242,0.706607834,3.40934247,62.25,57.9080515,17.5862407,0.0114942529,349,0.922963914,5,316.239266,2838.4538,510.31034,93.5543876,5.45,3758.5578,5,-5.57312925,5.30783582,12.4532549,80.9419625,0.153854126,1.00869346,0.860737435
2007_v2_07211003_ECG,1150,1450,856.630372,853,789,3.14984862,0.61480527,3.26443451,62.25,56.1235121,17.213417,0.0114942529,349,0.92649566,5,323.085404,2681.84974,457.927074,95.6728477,4.79,3558.53507,5,-5.17534722,6.02007299,12.1889058,78.429126,0.155413001,1.01053263,0.870934694
2007_v2_07211003_ECG,1155,1455,856.131805,853,789,3.04229867,0.57012096,3.23890273,62.25,55.1570364,17.326065,0.0114942529,349,0.930027406,5,383.022546,2589.30279,392.582381,96.8218877,4.05,3461.72961,5,-5.3362069,6.06985294,12.269005,77.0329076,0.15926966,1.01299508,0.875544334
2007_v2_07211003_ECG,1160,1460,856.614286,853.5,789,3.10638661,0.585411855,3.22802972,62,55.7349676,17.3562041,0.0114613181,350,0.930027406,5,509.470103,2523.54218,409.371498,103.534663,3.95,3545.91845,5,-5.43531469,6.76258993,12.2896663,77.8571598,0.157848891,1.0114193,0.869922475
2007_v2_07211003_ECG,1165,1465,856.507163,853,789,3.10642883,0.576205027,3.15266648,62.25,55.7353463,17.1983025,0.00862068966,349,0.930540226,5,670.752667,2309.03795,485.653397,105.349144,4.61,3570.79315,5,-5.425,6.85992908,12.1781871,77.8752169,0.156380779,1.01003941,0.87006756
2007_v2_07211003_ECG,1170,1470,855.856734,853,789,2.95227252,0.482718283,2.9736303,62.25,54.3348187,17.2457724,0.00862068966,349,0.936105743,5,863.677724,2074.04122,428.514888,93.7945005,4.57,3460.02833,5,-5.46153846,6.67210145,12.2119036,75.8644479,0.160970045,1.01212537,0.881941125
2007_v2_07211003_ECG,1175,1475,855.77937,853,789,2.93653452,0.475814556,2.97049334,62.25,54.1898008,17.1372083,0.00862068966,349,0.941212677,5,997.056368,2025.78698,358.738879,88.2810927,4.06,3469.86332,5,-5.56866197,6.63309353,12.1349235,75.6690998,0.160368281,1.00964346,0.875790757
2007_v2_07211003_ECG,1180,1480,857.048571,855,789,2.97772543,0.420948154,2.8647023,64,54.5685388,17.051918,0.00859598854,350,0.941212677,5,1067.26679,2014.31532,361.892456,87.7034806,4.13,3531.17805,5,-5.44482759,6.64388489,12.0733955,76.221283,0.158399269,1.01247755,0.885143723
2007_v2_07211003_ECG,1185,1485,858.830946,857,789,2.97366961,0.362787376,2.82391927,62.25,54.5313636,17.1604162,0.00862068966,349,0.944269866,5,1084.67122,1952.11705,397.910905,94.7808926,4.2,3529.48006,5,-5.47068966,6.7192029,12.148136,76.1561686,0.159516114,1.01390538,0.886556592
2007_v2_07211003_ECG,1190,1490,861.770115,858.5,789,2.85413144,0.365705343,2.78987768,70.5,53.4240717,17.2300087,0.00864553314,348,0.948434641,5,1070.77171,1784.64206,404.060064,109.484337,3.69,3368.95817,5,-5.42636986,6.42883212,12.1959406,74.5622016,0.163567335,1.02039322,0.901323122
2007_v2_07211003_ECG,1195,1495,864.149856,860,789,2.67588499,0.443553723,2.72395399,71.5,51.728957,17.4905424,0.00867052023,347,0.947781591,5,1021.03141,1659.61327,359.423144,93.905543,3.83,3133.97337,5,-5.36317568,6.59259259,12.3845636,72.0998791,0.171769547,1.15683703,0.963794919
2007_v2_07211003_ECG,1200,1500,866.046243,862,862,2.59486742,0.418170035,2.7504543,69,50.9398412,17.568582,0.00869565217,346,0.943814242,5,990.664389,1571.99655,370.350931,97.1713747,3.81,3030.18324,5,-5.625,6.59444444,12.4399288,70.9576142,0.175314925,1.16826735,0.969287536
2007_v2_07211003_ECG,1205,1505,866.66763,862,862,2.53449501,0.43436991,2.80147778,67,50.3437683,17.5937242,0.00869565217,346,0.93984933,5,879.123803,1587.85119,378.164676,96.1483602,3.93,2941.28803,5,-5.59166667,6.67857143,12.4586214,70.0983079,0.177730702,1.1770164,0.974393455
2007_v2_07211003_ECG,1210,1510,866.979769,862,862,2.50739379,0.439318204,2.82609157,67,50.0738833,17.7317369,0.00869565217,346,0.939256737,5,775.512579,1686.85202,331.588846,99.8456465,3.32,2893.79909,5,-5.58614865,6.70335821,12.5559711,69.6931501,0.180160763,1.17554481,0.965254056
2007_v2_07211003_ECG,1215,1515,865.757225,862,862,2.57687422,0.455441106,2.76735993,71,50.7629217,17.6794321,0.00869565217,346,0.936978787,5,698.956702,1833.58527,342.525731,91.22791,3.75,2966.29562,5,-5.70748299,6.7369403,12.5190778,70.6896112,0.177099259,1.17527748,0.956450485
2007_v2_07211003_ECG,1220,1520,863.902299,859,862,2.73243999,0.39119723,2.76879415,74,52.2727462,17.7728219,0.00864553314,348,0.927870564,5,598.327881,2057.23399,380.709353,109.765715,3.47,3146.03694,5,-5.73793103,6.60869565,12.5829678,72.8460631,0.17273367,1.1692049,0.937775139
2007_v2_07211003_ECG,1225,1525,862.672414,858,862,2.84333906,0.339884914,2.85955177,75.5,53.3229694,20.674505,0.0172910663,348,0.925364584,5,557.091552,2207.50198,371.90584,108.450437,3.43,3244.9498,5,-6.0152027,6.47962963,14.6400653,73.9753109,0.197904749,1.19268806,0.933433975
2007_v2_07211003_ECG,1230,1530,861.735632,857,875,2.8980106,0.361657097,2.79874537,77,53.8331738,20.7164889,0.0172910663,348,0.925142361,5,528.628886,2308.09725,353.991087,107.232291,3.3,3297.94951,5,-5.97089041,6.42335766,14.6693951,74.7049533,0.196364423,1.09577224,0.904734744
2007_v2_07211003_ECG,1235,1535,861.41954,855.5,875,2.90625576,0.375887857,2.79261253,77,53.9097,20.7292829,0.0172910663,348,0.925142361,5,528.779353,2323.71065,347.82066,105.411936,3.3,3305.7226,5,-6.15033784,6.44814815,14.6788796,74.8133812,0.196206606,1.10975076,0.899905149
2007_v2_07211003_ECG,1240,1540,862.316092,858,875,2.91911017,0.331160825,2.74906038,77.5,54.0287902,20.7559581,0.0172910663,348,0.925142361,5,521.836639,2331.54689,364.061342,106.736408,3.41,3324.18128,5,-6.23251748,6.42625899,14.6971175,74.9814316,0.196010095,1.11387231,0.909288802
2007_v2_07211003_ECG,1245,1545,863.988473,859,875,2.98700565,0.278063983,2.65222177,79.75,54.6535054,20.8289205,0.0173410405,347,0.925142361,5,509.672255,2414.30769,367.849325,114.205987,3.22,3406.03526,5,-6.50347222,6.54379562,14.7474174,75.8717666,0.194372927,1.11454127,0.912204803
2007_v2_07211003_ECG,1250,1550,865.387283,862,875,3.07658581,0.238686375,2.55109139,87,55.4669794,20.9493523,0.0173913043,346,0.923809028,5,520.538517,2524.55988,356.387655,113.532293,3.14,3515.01835,5,-6.76748252,7.05291971,14.834363,77.0267051,0.192587272,1.14577752,0.926080996
2007_v2_07211003_ECG,1255,1555,866.82659,862.5,875,3.14430028,0.187885711,2.45710361,90,56.0740606,20.9418795,0.0173913043,346,0.917221337,5,533.378364,2613.8604,338.250601,113.41151,2.98,3598.90087,5,-6.70486111,7.05882353,14.827996,77.9020609,0.190341511,1.1358819,0.915004343
2007_v2_07211003_ECG,1260,1560,868.376812,864,875,3.19605527,0.131437021,2.39681529,91.75,56.533665,21.0647534,0.0174418605,345,0.913167946,5,520.794952,2684.14746,343.868129,115.747884,2.97,3664.55843,5,-6.61888112,7.14705882,14.9153349,78.5470772,0.189890387,1.13930138,0.921769097
2007_v2_07211003_ECG,1265,1565,869.782609,866,875,3.20017063,0.0768143426,2.38997347,92.5,56.5700506,21.330252,0.0174418605,345,0.907465535,5,491.50458,2696.20259,361.944524,117.874207,3.07,3667.5259,5,-6.5541958,7.04259259,15.1028812,78.5636318,0.192237564,1.13654276,0.913148428
2007_v2_07211003_ECG,1270,1570,871.322674,867,875,3.08405593,0.0596378782,2.47500987,90,55.5342771,21.4062469,0.0174927114,344,0.907590521,5,403.546328,2646.62853,348.22076,121.448936,2.87,3519.84455,5,-6.54545455,7.07462687,15.1578035,77.0607089,0.196699508,1.14437536,0.92399464
2007_v2_07211003_ECG,1275,1575,872.968023,868,875,3.00718556,0.0183576395,2.5430953,86,54.8378114,21.5689957,0.0174927114,344,0.910842883,5,338.798814,2597.20134,371.288131,119.839056,3.1,3427.12734,5,-6.37676056,7.14259259,15.2724969,76.0336897,0.200864866,1.1430894,0.921800378
2007_v2_07211003_ECG,1280,1580,874.379009,871,875,2.96599044,-0.0341066214,2.59901649,80.75,54.4609074,21.6199226,0.0175438596,343,0.915369715,5,292.918549,2573.61565,397.55383,115.676004,3.44,3379.76404,5,-6.36690647,7.02355072,15.3090518,75.4825397,0.202815801,1.14845778,0.923744185
2007_v2_07211003_ECG,1285,1585,876.409357,872.5,875,2.87599029,-0.0893660031,2.70015702,78,53.6282602,21.6520742,0.0175953079,342,0.919205485,5,229.067175,2603.77789,322.22809,114.611411,2.81,3269.68457,5,-6.33928571,6.88970588,15.3321182,74.2758826,0.206421219,1.16217213,0.941768682
2007_v2_07211003_ECG,1290,1590,877.137427,874.5,875,2.89462915,-0.12169389,2.67562384,78,53.8017579,21.3386327,0.0175953079,342,0.919205485,5,233.736749,2627.57417,325.402667,112.284023,2.9,3298.99761,5,-6.40467626,6.83514493,15.1104173,74.5716675,0.202629468,1.14352345,0.934802238
2007_v2_07211003_ECG,1295,1595,877.77193,875,862,2.92499768,-0.143433868,2.63813487,79,54.0832477,21.4884542,0.0175953079,342,0.919205485,5,256.556844,2650.2232,314.276374,115.026621,2.73,3336.08304,5,-6.38868613,6.78776978,15.2168328,74.9562764,0.203009455,1.13730554,0.933739698
2007_v2_07211003_ECG,1300,1600,878.645161,876,864,2.95811784,-0.178814472,2.60564393,81,54.3885819,21.4700201,0.0176470588,341,0.918949074,5,262.163911,2691.95738,313.937355,114.290866,2.75,3382.34951,5,-6.22282609,6.72992701,15.2036569,75.3994993,0.201641352,1.11897531,0.923498346
2007_v2_07211003_ECG,1305,1605,879.794721,880,864,2.9905695,-0.2227178,2.57923753,81.25,54.6860997,21.6050784,0.0176470588,341,0.918692664,5,263.436923,2738.07174,307.939155,114.52145,2.69,3423.96927,5,-6.27338129,6.69301471,15.2986368,75.8095688,0.201803506,1.13761511,0.928531095
2007_v2_07211003_ECG,1310,1610,880.407625,882,864,2.99515394,-0.253100141,2.58229822,81.25,54.7279996,21.5805604,0.0176470588,341,0.918692664,5,261.112715,2756.80738,305.598452,111.23071,2.75,3434.74926,5,-6.27158273,6.73897059,15.2819375,75.8733831,0.201413683,1.17873843,0.946837642
2007_v2_07211003_ECG,1315,1615,881.458824,885.5,920,3.02888621,-0.295318232,2.56229647,83,55.0353178,21.5950939,0.017699115,340,0.918692664,5,259.842055,2778.0393,326.8726,116.82788,2.8,3481.58184,5,-6.18978102,6.77554745,15.2914019,76.3147786,0.200372747,1.18294199,0.952596296
2007_v2_07211003_ECG,1320,1620,883.305882,890.5,920,3.03686191,-0.350998928,2.61204494,79.5,55.1077301,21.7402201,0.017699115,340,0.918692664,5,236.44352,2771.99745,366.844056,119.170457,3.08,3494.45548,5,-6.14416058,6.76824818,15.3938479,76.398647,0.201493724,1.19016745,0.961127824
2007_v2_07211003_ECG,1325,1625,885.60355,894,920,2.88981862,-0.392500419,2.76792287,76,53.7570332,21.8660611,0.0178041543,338,0.918692664,5,167.356308,2737.04583,286.603578,122.484605,2.34,3313.49032,5,-6.22627737,6.62316176,15.4826459,74.4306719,0.208014324,1.18860857,0.962074763
2007_v2_07211003_ECG,1330,1630,887.45858,897,920,2.93570303,-0.44340147,2.77370253,77,54.1821283,21.8191923,0.0178041543,338,0.918692664,5,171.47943,2767.80667,319.678999,118.221493,2.7,3377.18659,5,-6.25,6.62683824,15.4501239,75.0513139,0.205860805,1.20468075,0.977516961
2007_v2_07211003_ECG,1335,1635,889.147929,900,920,2.98835787,-0.476816787,2.78734789,76,54.6658749,21.9005034,0.0178041543,338,0.918692664,5,181.679109,2800.49963,333.520235,128.09565,2.6,3443.79462,5,-6.33273381,6.7443609,15.5059871,75.7382341,0.2047313,1.20232766,0.977788138
2007_v2_07211003_ECG,1340,1640,891.163205,903,920,3.02417269,-0.522223921,2.84246404,74,54.9924785,22.1574453,0.0178571429,337,0.918692664,5,188.523738,2831.72804,341.811562,130.620267,2.62,3492.6836,5,-6.38686131,6.75559701,15.6890086,76.172176,0.205967709,1.20620138,0.974635507
2007_v2_07211003_ECG,1345,1645,893.991071,904.5,920,3.1040447,-0.510605829,2.96531,72,55.7139542,22.3124355,0.0179104478,336,0.918692664,5,215.621174,2897.91038,321.777425,140.846053,2.28,3576.15503,5,-6.25,6.96641791,15.7962932,77.1917516,0.204637062,1.20656851,0.96824039
2007_v2_07211003_ECG,1350,1650,896.274627,908,920,3.24862495,-0.484060979,2.999657,72,56.99671,22.7511268,0.0209580838,335,0.918692664,5,271.410998,3002.69374,335.909335,131.966044,2.55,3741.98011,5,-6.66727941,6.83834586,16.1094333,78.9793395,0.203970221,1.23160514,0.971718119
2007_v2_07211003_ECG,1355,1655,898.041916,910,920,3.32509133,-0.511038106,3.00134965,72,57.6636049,23.07697,0.021021021,334,0.918692664,5,314.672809,3061.40624,316.297819,145.528814,2.17,3837.90569,5,-6.61007463,7.2238806,16.3395692,79.8949381,0.204513196,1.23701304,0.976412053
2007_v2_07211003_ECG,1360,1660,899.486486,912,920,3.36795539,-0.556541209,3.00485178,74.25,58.0340882,23.2931165,0.0210843373,333,0.918692664,5,350.470823,3099.92553,313.243077,135.2505,2.32,3898.88993,5,-6.61654135,7.15671642,16.4949255,80.3979366,0.20516603,1.27105275,0.985115984
2007_v2_07211003_ECG,1365,1665,901.018072,913,920,3.44653139,-0.585968877,2.97385203,76,58.7071665,23.4442193,0.0211480363,332,0.918692664,5,406.150621,3131.19575,318.398122,143.210287,2.22,3998.95478,5,-6.72916667,7.00932836,16.6012307,81.3477838,0.204077234,1.30541763,0.99118224
2007_v2_07211003_ECG,1370,1670,902.837838,915,920,3.53456399,-0.609178349,2.94779911,78.25,59.4521992,23.434798,0.0210843373,333,0.918692664,5,483.424145,3148.09366,329.274832,148.763973,2.21,4109.55661,5,-6.79356061,7.07222222,16.5939102,82.4243296,0.201322962,1.33146188,1.01315729
2007_v2_07211003_ECG,1375,1675,904.96988,916.5,920,3.67544924,-0.600673863,2.95150822,81,60.6254834,23.5685668,0.0211480363,332,0.918692664,5,574.007141,3186.45514,356.651668,155.409368,2.29,4272.52332,5,-6.47692308,7.16727941,16.6883717,84.097543,0.198440657,1.23381644,0.987783181
2007_v2_07211003_ECG,1380,1680,907.030211,918,920,3.71903545,-0.648649902,3.00446455,76.25,60.983895,23.7083926,0.0212121212,331,0.918692664,5,633.402631,3182.18377,358.478768,154.894211,2.31,4328.95938,5,-6.53100775,7.38970588,16.7870968,84.594706,0.198441458,1.24259394,0.988415025
2007_v2_07211003_ECG,1385,1685,909.390909,919,920,3.79096223,-0.68177105,3.05896612,69,61.5707904,23.826373,0.0212765957,330,0.918692664,5,715.463851,3199.09075,349.773827,149.882364,2.33,4414.21079,5,-6.76757813,7.67647059,16.8706057,85.4242771,0.197491934,1.24359214,0.995600735
2007_v2_07211003_ECG,1390,1690,911.18845,920,920,3.8756595,-0.700261137,3.07706679,67.5,62.254795,23.9712099,0.0243902439,329,0.918692664,5,797.494081,3250.02196,324.691104,148.561154,2.19,4520.7683,5,-7.00992063,7.77007299,16.9755229,86.3895284,0.196499775,1.25144291,1.00193678
2007_v2_07211003_ECG,1395,1695,912.6231,922,920,4.03440629,-0.65872726,3.01511195,70.25,63.5169764,24.0734395,0.0243902439,329,0.918692664,5,936.524099,3265.21255,343.361398,163.04993,2.11,4708.14798,5,-6.94726563,6.87962963,17.0465969,88.1942522,0.19328467,1.25774007,1.0032567
2007_v2_07211003_ECG,1400,1700,914.5,923.5,920,4.20075841,-0.634209795,2.99547958,71.5,64.813258,24.3964453,0.0275229358,328,0.922835009,5,1071.03969,3291.37582,362.881678,174.183868,2.08,4899.48105,5,-6.71230159,6.94485294,17.2737674,90.0174082,0.191893632,1.25061855,0.982952662
2007_v2_07211003_ECG,1405,1705,917.452599,926,920,4.17851845,-0.680574328,3.13960122,68.5,64.6414608,24.5000939,0.027607362,327,0.931961993,5,1140.356,3135.87176,414.693958,177.917483,2.33,4868.8392,5,-6.75992063,6.51865672,17.3474622,89.7557935,0.193274011,1.26879936,0.99770445
2007_v2_07211003_ECG,1410,1710,920.230061,928,928,3.97329768,-0.747880621,3.40179283,65,63.0340993,24.6812916,0.0276923077,326,0.941241686,5,1133.05698,2829.81675,457.165943,193.978499,2.36,4614.01818,5,-6.88095238,6.54511278,17.4746711,87.4141363,0.199906696,1.28586896,1.00928135
2007_v2_07211003_ECG,1415,1715,923.692308,930,928,3.63515195,-0.758001011,3.63509207,64.25,60.2922213,24.9670771,0.0277777778,325,0.948728662,5,1138.85917,2506.79001,311.673643,222.275582,1.4,4179.59841,5,-6.726,6.60526316,17.6769721,83.4135993,0.211919546,1.31322511,1.02475676
2007_v2_07211003_ECG,1420,1720,925.697531,931,928,3.48299182,-0.778966844,3.76831466,62,59.0168774,24.5129018,0.0247678019,324,0.944853493,5,1162.14071,2431.00239,227.373147,180.375513,1.26,4000.89176,5,-6.934,6.68371212,17.3597442,81.6371418,0.212645174,1.40577265,1.03497667
2007_v2_07211003_ECG,1425,1725,926.358025,932,928,3.47621817,-0.807603273,3.81633258,63,58.9594621,24.8970636,0.0278637771,324,0.943473864,5,1153.80205,2447.95367,194.381466,197.575785,0.98,3993.71297,5,-7.04960317,6.82633588,17.6320214,81.4956941,0.216355252,1.4153046,1.04033432
2007_v2_07211003_ECG,1430,1730,925.91358,931.5,928,3.44908848,-0.801549424,3.84101224,59,58.7289408,24.4127942,0.0247678019,324,0.943473864,5,1118.82424,2464.85774,198.598944,181.663697,1.09,3963.94462,5,-7.125,7.07061069,17.2890663,81.2358613,0.212825543,1.43644912,1.06303529
2007_v2_07211003_ECG,1435,1735,925.762346,932,928,3.43783499,-0.800516502,3.85564862,59,58.6330537,24.1781955,0.0247678019,324,0.943473864,5,1150.84855,2421.541,210.840996,175.262361,1.2,3958.49291,5,-7.37896825,7.02290076,17.1230052,81.1324391,0.211050048,1.40382054,1.05700241
2007_v2_07211003_ECG,1440,1740,925.932099,932.5,928,3.44893655,-0.801713624,3.84433257,59.5,58.7276473,24.1644905,0.0247678019,324,0.943473864,5,1219.00326,2367.51744,219.758309,174.473542,1.26,3980.75255,5,-7.376,7.12689394,17.1133699,81.271186,0.210571185,1.39142214,1.05529681
2007_v2_07211003_ECG,1445,1745,926.947368,934,928,3.56409971,-0.767249413,3.74489713,64,59.7000813,24.299375,0.0248447205,323,0.943473864,5,1348.68448,2347.31049,236.754142,181.867097,1.3,4114.61621,5,-7.43495935,6.98308271,17.2066203,82.6567095,0.208169674,1.39091383,1.0441315
2007_v2_07211003_ECG,1450,1750,928.027864,934,912,3.65663587,-0.755309472,3.66347571,66,60.4701238,24.5592198,0.0248447205,323,0.943473864,5,1458.88144,2363.53662,228.399659,180.824803,1.26,4231.64252,5,-7.7768595,7.01296296,17.3927505,83.7303049,0.207723482,1.31916898,1.03801724
2007_v2_07211003_ECG,1455,1755,928.758514,934,912,3.72833281,-0.739951174,3.60552563,67,61.0600754,24.8759032,0.0279503106,323,0.943473864,5,1577.1959,2347.6847,216.288751,181.714257,1.19,4322.88361,5,-8.11065574,7.15298507,17.6167522,84.5358838,0.208393778,1.32438798,1.03447114
2007_v2_07211003_ECG,1460,1760,929.015528,934,912,3.76655116,-0.733565148,3.56973316,70,61.3722344,24.8379169,0.0280373832,322,0.943473864,5,1714.81854,2259.77651,227.436013,181.487876,1.25,4383.51894,5,-8.23565574,7.40925926,17.5903387,84.9922485,0.206964035,1.34401852,1.04453822
2007_v2_07211003_ECG,1465,1765,929.385093,934,912,3.79814408,-0.733838627,3.53482357,73,61.6290847,24.5583418,0.0249221184,322,0.943473864,5,1873.61833,2150.30956,228.446226,184.018016,1.24,4436.39213,5,-8.08677686,7.49264706,17.3924709,85.4036891,0.203650112,1.34550402,1.05175314
2007_v2_07211003_ECG,1470,1770,930.096273,934,912,3.86576329,-0.723030148,3.4840223,74,62.1752627,24.6430593,0.0249221184,322,0.943473864,5,2022.72507,2094.83261,232.297199,176.578638,1.32,4526.43352,5,-7.94262295,7.47592593,17.4523093,86.1797162,0.202510638,1.34738513,1.04607713
2007_v2_07211003_ECG,1475,1775,930.879257,936,912,3.8772742,-0.750014542,3.49282742,75.5,62.2677621,24.6652118,0.0248447205,323,0.943473864,5,2064.88368,2086.16743,217.097412,176.262034,1.23,4544.41056,5,-7.65336134,7.64208633,17.4674808,86.3101124,0.202380466,1.37595703,1.05490693
2007_v2_07211003_ECG,1480,1780,931.732919,939,912,3.90644558,-0.779931279,3.49639446,76,62.5015646,24.8185314,0.0249221184,322,0.943473864,5,2096.46591,2098.07183,214.9221,177.710299,1.21,4587.17015,5,-7.69747899,7.64673913,17.5764455,86.6253988,0.202901755,1.40173717,1.06570985
2007_v2_07211003_ECG,1485,1785,933.046584,941,912,3.98054299,-0.789138762,3.48187707,76,63.0915446,25.0260301,0.0249221184,322,0.943473864,5,2151.59329,2095.59029,232.839095,193.674322,1.2,4673.697,5,-7.75641026,7.58928571,17.7212749,87.4473693,0.202650749,1.40744331,1.07033179
2007_v2_07211003_ECG,1490,1790,934.5919,943,912,4.09416106,-0.793885836,3.42779066,77,63.9856317,25.2698561,0.025,321,0.943473864,5,2237.50339,2121.92523,267.138023,187.54011,1.42,4814.10675,5,-7.71610169,7.68345324,17.8957019,88.7021193,0.201750556,1.41171426,1.06458146
2007_v2_07211003_ECG,1495,1795,935.88162,946,912,4.12950469,-0.816564028,3.4610775,75.25,64.2612223,25.6521198,0.03125,321,0.945700988,5,2229.1191,2169.02458,268.381054,189.304254,1.42,4855.82899,5,-7.38695652,7.63380282,18.1670583,89.0447493,0.204021668,1.41045587,1.06297968
2007_v2_07211003_ECG,1500,1800,937.1875,947.5,980,4.12771395,-0.865722039,3.53913669,74.5,64.2472875,26.1526745,0.0344827586,320,0.950455374,5,2177.11845,2178.71039,296.593151,199.153477,1.49,4851.57547,5,-7.57758621,7.23035714,18.5191041,88.9520696,0.208191942,1.43407225,1.06995781
2007_v2_07211003_ECG,1505,1805,939.77116,950,980,3.96129652,-0.952427636,3.85357206,72.75,62.9388316,26.2253178,0.034591195,319,0.954420286,5,1991.1045,2154.76349,295.940716,204.26886,1.45,4646.07757,5,-7.61853448,7.45503597,18.5704014,87.0501766,0.213329854,1.45212966,1.08834509
2007_v2_07211003_ECG,1510,1810,942.738994,951.5,980,3.77615564,-1.03588558,4.21778868,72,61.4504323,26.300376,0.0347003155,318,0.955012879,5,1802.36237,2049.47955,341.694772,229.968588,1.49,4423.50529,5,-7.69915254,7.33455882,18.6218407,84.8854423,0.21937614,1.46784428,1.10257994
2007_v2_07211003_ECG,1515,1815,946.391167,954,980,3.46342878,-1.08714868,4.66823926,70,58.850903,26.3953031,0.0348101266,317,0.957290829,5,1563.37538,1829.94345,423.447252,214.485195,1.97,4031.25128,5,-7.75635593,7.59007353,18.6891004,81.1022508,0.230438739,1.57990535,1.10509027
2007_v2_07211003_ECG,1520,1820,951.155556,957,980,2.8730235,-0.91765424,4.53674749,70,53.6005923,26.0972581,0.0318471338,315,0.966399051,5,1239.06061,1379.80926,384.062497,274.434032,1.4,3277.3664,5,-7.90208333,7.51515152,18.4791646,73.5157634,0.251363296,1.59059982,1.1311384
2007_v2_07211003_ECG,1525,1825,955.770701,959,980,2.54697601,-0.512363239,3.41724523,68,50.4675738,24.2872848,0.0255591054,314,0.968905032,5,1060.45685,1113.70392,424.338325,218.462668,1.94,2816.96176,5,-8.21875,7.38167939,17.1912944,69.2705667,0.248176032,1.70644597,1.08180873
2007_v2_07211003_ECG,1530,1830,960.028754,962,980,2.24397673,-0.130255394,2.82115458,66.25,47.3706316,24.5551446,0.0288461538,313,0.969127254,5,902.447223,927.780981,371.470067,212.924442,1.74,2414.62271,5,-8.08193277,7.73473282,17.3866184,64.6966689,0.268740551,1.71179449,1.08603679
2007_v2_07211003_ECG,1535,1835,963.231511,966,980,2.05688817,0.0429862358,2.52630321,66.75,45.352929,24.6971332,0.0290322581,311,0.969127254,5,798.657181,879.30987,292.319538,214.76486,1.36,2185.05145,5,-8.01446281,7.98818898,17.4863585,61.7090236,0.283367933,1.78169629,0.98353505
2007_v2_07211003_ECG,1540,1840,965.916129,968,980,2.07860783,0.0742692503,2.57621219,66,45.5917518,25.0440389,0.0323624595,310,0.969127254,5,782.124043,922.566584,278.512402,219.319908,1.27,2202.52294,5,-8.0125,8.25195313,17.7344633,61.9895513,0.286087945,1.78343276,0.97340764
2007_v2_07211003_ECG,1545,1845,967.580645,970,980,2.16721516,0.066098366,2.54723862,64,46.5533582,25.5403102,0.0355987055,310,0.969127254,5,821.20005,974.21987,290.098248,212.67572,1.36,2298.19389,5,-7.97689076,8.25775194,18.0889565,63.3026064,0.285753739,1.7536354,0.94556488
2007_v2_07211003_ECG,1550,1850,968.748387,973,980,2.18950283,0.0181106276,2.51202062,66,46.7921236,25.5380293,0.0355987055,310,0.970460588,5,835.960844,1005.66301,268.396259,214.926573,1.25,2324.94669,5,-8.05,8.25976562,18.0866729,63.6543629,0.284138778,1.72530248,1.06966963
2007_v2_07211003_ECG,1555,1855,970.174757,976,980,2.20684598,-0.0452863987,2.49660171,67,46.9770793,25.6971624,0.0357142857,309,0.977048278,5,834.39604,1033.19476,261.375175,219.612352,1.19,2348.57833,5,-8.09322034,8.53875969,18.1994958,63.894212,0.284837941,1.75949229,1.07078981
2007_v2_07211003_ECG,1560,1860,971.533981,977,980,2.224399,-0.0938253464,2.49208247,67.25,47.1635347,25.9007847,0.038961039,309,0.981323892,5,833.953179,1028.39253,282.311883,225.573713,1.25,2370.2313,5,-8.56512605,8.58398437,18.3433085,64.1273814,0.28604487,1.77347995,1.06696558
2007_v2_07211003_ECG,1565,1865,973.814935,979,980,2.21338909,-0.111408737,2.5240323,65.5,47.0466693,26.0415604,0.0423452769,308,0.988602011,5,806.673118,987.155542,325.352638,235.699495,1.38,2354.88079,5,-8.57627119,8.68164063,18.4419371,63.9270924,0.288483903,1.81088528,1.07264878
2007_v2_07211003_ECG,1570,1870,976.006515,980,980,2.08283656,-0.0852505263,2.50916229,65.5,45.6381042,26.1213233,0.0424836601,307,0.992796484,5,732.806997,926.866657,298.922455,245.605131,1.22,2204.20124,5,-8.76077586,8.89534884,18.4983348,61.8343329,0.299159608,1.85474349,0.979371001
2007_v2_07211003_ECG,1575,1875,978.5,981,980,1.99342459,-0.0654945911,2.47451839,61,44.6477837,26.2792694,0.0459016393,306,0.993719561,5,680.288437,883.161515,300.983586,236.13047,1.27,2100.56401,5,-8.8826087,8.8372093,18.6115878,60.3362079,0.308464659,1.84245182,0.988839363
2007_v2_07211003_ECG,1580,1880,980.5,984,980,1.92372623,-0.0763237881,2.50518738,61,43.8603036,26.6505621,0.0491803279,306,0.993719561,5,639.615547,837.771614,292.550246,245.671928,1.19,2015.60933,5,-9.17982456,8.73664122,18.8730024,59.0869041,0.319410919,1.84487098,0.999430006
2007_v2_07211003_ECG,1585,1885,982.619672,986,980,1.83955224,-0.0889771651,2.55422424,59,42.8900017,26.9432273,0.0526315789,305,0.993719561,5,589.008114,804.941954,278.700337,249.307904,1.12,1921.95831,5,-9.1875,8.89453125,19.0823081,57.5757762,0.331429455,1.87371218,1.00690745
2007_v2_07211003_ECG,1590,1890,984.472131,987,980,1.82274346,-0.111209811,2.59990583,58.25,42.6935998,27.344296,0.0559210526,305,0.993719561,5,570.204498,780.150867,288.308802,262.29451,1.1,1900.95868,5,-9.4627193,8.84615385,19.3659791,57.1878115,0.338638227,1.91070885,1.00132815
2007_v2_07211003_ECG,1595,1895,986.881579,988,980,1.8506526,-0.0738341754,2.76194059,56,43.019212,27.7731261,0.0594059406,304,0.993719561,5,570.115982,766.738352,295.984013,288.343766,1.03,1921.18211,5,-9.36936937,8.90719697,19.6663504,57.5720406,0.341595507,1.92005625,1.00051004
2007_v2_07211003_ECG,1600,1900,989.221122,989,980,1.9327026,0.0299394073,3.04735029,57.75,43.9625136,27.9556768,0.059602649,303,0.993975971,5,592.75562,787.6421,350.923259,266.973163,1.31,1998.29414,5,-9.49336283,8.6879845,19.7993078,58.9354953,0.335948781,1.91582703,0.979150317
2007_v2_07211003_ECG,1605,1905,991.655629,991,980,1.94110361,0.023174248,3.0899667,59,44.0579574,28.0757163,0.0598006645,302,0.994232381,5,600.365995,789.512194,332.366502,279.110961,1.19,2001.35565,5,-9.48198198,8.75961538,19.8831634,59.0496996,0.336719129,1.92927329,0.973471848
2007_v2_07211003_ECG,1610,1910,994.304636,992.5,980,1.9247441,0.0981396949,3.16773079,57,43.8719056,28.381127,0.0631229236,302,0.994232381,5,606.288373,757.072881,314.724541,293.17531,1.07,1971.26111,5,-9.54646018,8.73828125,20.0982024,58.6988114,0.34239539,1.92525722,0.959749311
2007_v2_07211003_ECG,1615,1915,996.302326,995,980,1.92059829,0.0934273111,3.2017852,57,43.8246311,28.6195737,0.0666666667,301,0.994232381,5,613.588717,732.305936,316.749093,301.898048,1.05,1964.54179,5,-9.56415929,8.76771654,20.2688612,58.5693594,0.346065953,1.92503653,0.94735348
2007_v2_07211003_ECG,1620,1920,998.626667,996,980,1.91809427,0.12140634,3.21625298,55,43.7960531,28.7111086,0.0668896321,300,0.994232381,5,628.15097,679.150328,341.730309,303.383454,1.13,1952.41506,5,-9.69690265,9.07539683,20.3335939,58.5041323,0.347558251,1.92501408,0.95558669
2007_v2_07211003_ECG,1625,1925,1001.04667,998,980,1.82349614,0.187574819,3.09258124,55.5,42.7024138,28.7416121,0.0668896321,300,0.994232381,5,625.425459,625.944412,298.709581,293.383816,1.02,1843.46327,5,-9.4627193,9.048,20.3562421,56.8560964,0.358030948,1.94327204,0.97155157
2007_v2_07211003_ECG,1630,1930,1002.88963,999,980,1.86493744,0.220998679,3.25227536,54.75,43.1849215,29.6125427,0.0771812081,299,0.994232381,5,640.664979,608.877284,310.327713,319.60621,0.97,1879.47619,5,-9.67477876,9.65,20.9742023,57.358153,0.365670811,1.95966864,0.968204124
2007_v2_07211003_ECG,1635,1935,1003.85953,1000,980,1.83583255,0.187380448,3.30816726,54,42.8466166,29.642331,0.0771812081,299,0.993975971,5,624.436241,602.985357,299.26198,321.18283,0.93,1847.86641,5,-10.0153509,9.7358871,20.9947935,56.8408634,0.369360918,1.95909709,0.976900923
2007_v2_07211003_ECG,1640,1940,1003.93311,1001,991,1.83688813,0.180431428,3.3076382,54,42.8589329,29.5980341,0.0771812081,299,0.99269392,5,554.115791,670.432482,296.235121,319.463561,0.93,1840.24695,5,-10.1315789,10.1330645,20.9638515,56.8708466,0.36862211,2.00517945,0.984139081
2007_v2_07211003_ECG,1645,1945,1002.54849,1000,991,1.97349009,0.0936279808,3.24591316,55.75,44.423981,29.4945109,0.0738255034,299,0.992437509,5,469.062934,846.074277,333.58635,326.908671,1.02,1975.63223,5,-10.4021739,10.2076613,20.8904556,59.2500552,0.352581201,2.01439954,0.966651864
2007_v2_07211003_ECG,1650,1950,1001.11333,1000,991,2.07697708,0.0713758806,3.13886205,57.5,45.573864,29.3346508,0.0735785953,300,0.992181099,5,404.49117,1038.95679,311.851969,321.097366,0.97,2076.39729,5,-10.4804348,10.298,20.7769164,61.0104409,0.340546897,2.0372728,0.961280242
2007_v2_07211003_ECG,1655,1955,1000.30333,999.5,991,2.17906153,-0.00514765231,3.16682484,59,46.6804191,29.2489602,0.0769230769,300,0.992181099,5,345.204945,1168.59018,331.4216,331.800622,1,2177.01734,5,-10.5877193,10.3551587,20.715922,62.6815254,0.33049486,2.0033016,1.06744278
2007_v2_07211003_ECG,1660,1960,1001.07667,1000,991,2.16606434,-0.0429468643,3.20087385,58,46.5409963,29.7225183,0.0836120401,300,0.992181099,5,315.381428,1176.41088,353.525098,321.842351,1.1,2167.15976,5,-10.9407895,10.4246032,21.0521896,62.361318,0.337584103,2.04954677,0.946709154
2007_v2_07211003_ECG,1665,1965,1001.57,1001,991,2.15623254,-0.0692232165,3.22884227,57,46.4352511,29.8184585,0.0836120401,300,0.992181099,5,297.584855,1181.17125,354.826482,323.026009,1.1,2156.6086,5,-11.0934783,10.2177419,21.1201658,62.1804124,0.339659468,2.09698708,0.950144167
2007_v2_07211003_ECG,1670,1970,1001.80936,1002,991,2.16110783,-0.08536833,3.22858994,56.75,46.487717,29.995022,0.0838926174,299,0.992181099,5,279.681311,1195.11278,356.855387,329.479008,1.08,2161.12849,5,-11.1695652,9.88821138,21.245263,62.2161913,0.341474825,2.09740012,0.94191357
2007_v2_07211003_ECG,1675,1975,1001.90635,1002,991,2.15556838,-0.0915143142,3.24502254,56.75,46.4280991,29.9226632,0.0838926174,299,0.992181099,5,285.69099,1190.88166,353.53886,326.254998,1.08,2156.36651,5,-11.1347826,9.95325203,21.1940252,62.1445899,0.34104377,2.08361274,0.943066613
2007_v2_07211003_ECG,1680,1980,1002.27425,1003,991,2.14503192,-0.110319593,3.27495114,55.75,46.3144893,29.9489499,0.0838926174,299,0.992181099,5,272.066702,1197.65595,350.164095,324.149094,1.08,2144.03584,5,-10.9671053,10.0060484,21.2127225,61.9684133,0.342315082,2.08980194,0.948356977
2007_v2_07211003_ECG,1685,1985,1002.08361,1003,991,2.15503661,-0.10247186,3.24792097,56.75,46.4223719,29.9886444,0.0838926174,299,0.990079451,5,270.994754,1199.50171,354.141448,328.554193,1.08,2153.1921,5,-11.0818966,10.1045082,21.2407947,62.12006,0.34193133,2.06223621,0.942812308
2007_v2_07211003_ECG,1690,1990,1001.90635,1003,991,2.16252811,-0.0991539717,3.23658629,56.5,46.5029904,30.1720458,0.0872483221,299,0.989440562,5,264.16728,1214.56285,347.739891,325.754592,1.07,2152.22461,5,-11.1056034,11.0553279,21.3702207,62.1962209,0.343593556,2.08100631,0.944978165
2007_v2_07211003_ECG,1695,1995,999.54,1001.5,991,2.39251679,-0.193596577,3.20727231,61.5,48.91336,30.2669837,0.0903010033,300,0.989440562,5,300.366193,1308.04354,470.571884,327.348568,1.44,2406.33018,5,-10.9137931,10.7418699,21.4377429,65.7682048,0.325959071,2.01649039,1.03234691
2007_v2_07211003_ECG,1700,2000,998.996667,1000,991,2.38365551,-0.169859073,3.21602522,62,48.8226946,30.0427789,0.0869565217,300,0.989440562,5,322.502744,1311.91381,445.511308,316.156277,1.41,2396.08414,5,-10.6152174,10.546371,21.2790403,65.6849561,0.323956072,2.02046168,1.04117001
2007_v2_07211003_ECG,1705,2005,998.72,999.5,991,2.38017552,-0.153810014,3.22046835,62,48.7870425,29.9142587,0.0869565217,300,0.989440562,5,333.596858,1311.60543,432.473381,314.040698,1.38,2391.71637,5,-10.6034483,10.554878,21.1879469,65.661419,0.322684876,2.02432097,1.04486508
2007_v2_07211003_ECG,1710,2010,999.98,1001.5,991,2.37305645,-0.208375051,3.24689523,59,48.7140273,29.7251625,0.0869565217,300,0.989440562,5,290.397931,1355.74261,435.843636,303.08019,1.44,2385.06436,5,-10.7693966,10.5142276,21.0540749,65.5960276,0.320965699,2.01924142,1.05505283
2007_v2_07211003_ECG,1715,2015,1000.47667,1002,991,2.3528523,-0.233567396,3.3040135,57.5,48.5062088,29.6908824,0.0869565217,300,0.989696972,5,270.720832,1357.1066,434.045202,303.272157,1.43,2365.14479,5,-11.1336207,10.5264228,21.0295259,65.2952038,0.322068463,2.07120455,1.06138398
2007_v2_07211003_ECG,1720,2020,1001.45,1003,991,2.34346572,-0.273402482,3.34730265,56,48.4093557,29.7544578,0.0836120401,300,0.993828551,5,236.191645,1355.11271,445.501246,318.095919,1.4,2354.90152,5,-11.5148305,10.5144628,21.0722782,65.1374741,0.323504687,2.04590286,1.06851984
2007_v2_07211003_ECG,1725,2025,1003.09699,1004,991,2.26372546,-0.309803151,3.49297063,56.75,47.578624,30.1025652,0.0906040268,299,0.995208181,5,182.328769,1281.05639,473.976693,329.635552,1.44,2266.9974,5,-11.4369748,11.1554622,21.3180981,63.8199782,0.33403487,2.06236004,1.08151307
2007_v2_07211003_ECG,1730,2030,1004.89262,1004.5,991,2.11107261,-0.271178545,3.57828407,55,45.9464101,30.0344359,0.0909090909,298,0.995208181,5,134.494713,1210.24232,450.477841,307.572285,1.46,2102.78716,5,-11.4444444,11.2583333,21.2729476,61.3971246,0.346481171,2.10777608,0.975981624
2007_v2_07211003_ECG,1735,2035,1006.57047,1007,991,2.0886095,-0.315491859,3.68815712,55,45.7013074,30.5389854,0.0942760943,298,0.995208181,5,97.0307453,1225.70764,438.744433,317.334731,1.38,2078.81756,5,-11.4237288,11.3697479,21.6303721,60.9044004,0.355152862,2.11730904,0.969870582
2007_v2_07211003_ECG,1740,2040,1007.58054,1007.5,991,2.07093794,-0.361792257,3.76958178,52,45.5075591,30.478949,0.0976430976,298,0.995208181,5,78.8522886,1247.8912,416.426066,321.301407,1.3,2064.47096,5,-11.284188,11.5270833,21.5875819,60.6288065,0.35606147,2.065412,0.964584021
2007_v2_07211003_ECG,1745,2045,1007.84228,1008,991,2.08207268,-0.368383968,3.74875748,52,45.6297347,30.8579891,0.101010101,298,0.995208181,5,71.2587268,1262.25326,413.725336,329.595866,1.26,2076.83319,5,-11.2860169,11.5063025,21.8566681,60.7159899,0.359982077,2.05522554,0.937762989
2007_v2_07211003_ECG,1750,2050,1008.44966,1008.5,991,2.10540655,-0.381313226,3.71402326,52,45.8847093,30.9621252,0.104377104,298,0.995208181,5,58.8315399,1282.21175,426.887514,330.766367,1.29,2098.69718,5,-11.4764957,11.7166667,21.9304612,61.072645,0.359088118,2.06287114,0.937087099
2007_v2_07211003_ECG,1755,2055,1008.52013,1009,991,2.09750969,-0.386432667,3.74139684,51,45.7985774,30.6773148,0.101010101,298,0.995208181,5,58.6381421,1279.31658,425.802991,329.259294,1.29,2093.01701,5,-11.6965812,11.5666667,21.7284214,61.0155316,0.356112957,2.0101051,0.929852045
2007_v2_07211003_ECG,1760,2060,1009.16779,1009,991,2.09657108,-0.417892733,3.77058023,50,45.7883291,30.6549714,0.101010101,298,0.995208181,5,51.4035824,1288.4239,423.28271,327.168605,1.29,2090.2788,5,-11.5042735,11.3041667,21.7125265,61.0058059,0.355909183,1.98502382,0.920455716
2007_v2_07211003_ECG,1765,2065,1008.16107,1009,991,2.19952279,-0.428431686,3.62451587,51,46.8990702,31.0421132,0.107744108,298,0.995208181,5,73.1149543,1282.85572,492.193827,351.334281,1.4,2199.49878,5,-11.6293103,11.8326446,21.9854838,62.5754271,0.351343727,2.00206719,1.05526151
2007_v2_07211003_ECG,1770,2070,1006.02341,1008,991,2.46197596,-0.545680308,3.6872572,55,49.6183027,31.1208405,0.110738255,299,0.995208181,5,130.008026,1417.85026,617.595067,333.557853,1.85,2499.0112,5,-11.8706897,11.7766393,22.0426652,66.6188624,0.330877237,2.00736545,1.02190367
2007_v2_07211003_ECG,1775,2075,1005.95638,1008.5,991,2.48600146,-0.547194817,3.6434993,53,49.8598181,31.2239656,0.111111111,298,0.995208181,5,162.937827,1454.96832,572.333193,339.424476,1.69,2529.66382,5,-12.125,11.7073171,22.1157928,66.954422,0.33031116,2.01785505,1.02664107
2007_v2_07211003_ECG,1780,2080,1005.80537,1008.5,991,2.5000226,-0.54247338,3.61004385,55,50.000226,31.1292516,0.111111111,298,0.995208181,5,198.662647,1477.16442,541.989498,331.57051,1.63,2549.38708,5,-12.4955357,11.43,22.0488426,67.1855173,0.328178504,2.01878899,1.01304717
2007_v2_07211003_ECG,1785,2085,1005.46309,1008,991,2.4987882,-0.527004635,3.59756029,56,49.9878805,30.9252384,0.111111111,298,0.995208181,5,216.751717,1474.42255,532.282364,324.661257,1.64,2548.11788,5,-12.6294643,11.396,21.9040782,67.2144906,0.325883273,1.98461574,1.02375727
2007_v2_07211003_ECG,1790,2090,1005.10738,1008,991,2.49811638,-0.508460054,3.58426418,56,49.9811602,30.7750063,0.111111111,298,0.995208181,5,218.706206,1473.44412,531.025568,322.946835,1.64,2546.12273,5,-12.550885,11.421371,21.7976041,67.2391048,0.324180463,1.970227,1.01083988
2007_v2_07211003_ECG,1795,2095,1005.47315,1008,991,2.47480231,-0.516350361,3.63692414,56,49.7473849,30.5979137,0.107744108,298,0.995208181,5,229.687779,1449.58297,506.766594,336.041906,1.51,2522.07925,5,-13.2008547,11.3083333,21.672052,66.9322551,0.323790853,1.92333025,1.00627115
2007_v2_07211003_ECG,1800,2100,1005.80537,1008,991,2.44266233,-0.522521408,3.70262753,56,49.4232974,30.2808404,0.104377104,298,0.995208181,5,260.616299,1414.9906,496.712026,331.259787,1.5,2503.57872,5,-12.8456522,11.7131148,21.4477342,66.5230739,0.32241045,1.94073941,1.01551892
2007_v2_07211003_ECG,1805,2105,1006.47315,1009,991,2.43086965,-0.559310578,3.76203588,53,49.3038502,30.3814692,0.104377104,298,0.995208181,5,271.196326,1392.3281,501.122693,327.454997,1.53,2492.10212,5,-13.0804348,11.7889344,21.5191713,66.3224288,0.324462956,1.94380093,1.01507297
2007_v2_07211003_ECG,1810,2110,1007.12752,1009.5,991,2.43992981,-0.590126141,3.76731193,51,49.3956457,30.3162345,0.104377104,298,0.995208181,5,267.614492,1400.76931,506.860205,328.531813,1.54,2503.77582,5,-12.9956522,11.7192623,21.4729252,66.4738528,0.323028143,1.91200238,1.01019314
2007_v2_07211003_ECG,1815,2115,1007.09396,1010,997,2.45644905,-0.588554679,3.72503827,52,49.5625772,30.7729822,0.107744108,298,0.995208181,5,271.776629,1395.96685,510.822532,338.698872,1.51,2517.26488,5,-12.6530172,11.9669421,21.7962337,66.6169821,0.327187348,1.94225414,1.01206019
2007_v2_07211003_ECG,1820,2120,1005.77852,1009.5,997,2.55325045,-0.546971465,3.50849287,56,50.5296987,30.8149686,0.111111111,298,0.995208181,5,302.215215,1393.63401,591.952446,334.586815,1.77,2622.38848,5,-12.7152174,11.897541,21.8255353,68.0451828,0.32075063,1.96732424,0.998713772
2007_v2_07211003_ECG,1825,2125,1004.59396,1008.5,1004,2.51997936,-0.515174851,3.52965538,56,50.199396,30.9529892,0.114478114,298,0.99495177,5,273.506615,1398.86223,572.044051,337.092116,1.7,2581.50501,5,-13.0891304,12.0204918,21.9230495,67.5228748,0.32467589,1.95705458,0.990207896
2007_v2_07211003_ECG,1830,2130,1003.38462,1007,1004,2.48727775,-0.484589348,3.52915849,58,49.8726152,30.900631,0.110738255,299,0.99469536,5,259.920351,1411.87972,544.500274,329.72732,1.65,2546.02767,5,-12.8426724,12.1106557,21.8863501,67.0488119,0.32642413,1.96029794,0.996724835
2007_v2_07211003_ECG,1835,2135,1002.84667,1006,1004,2.46830417,-0.460994954,3.54683976,57,49.6820306,30.7732021,0.107023411,300,0.99469536,5,244.485473,1404.09625,548.35412,327.537845,1.67,2524.47369,5,-12.7047414,12.2215447,21.7964146,66.7946454,0.32631979,1.94559874,0.995395827
2007_v2_07211003_ECG,1840,2140,1002.12333,1005,997,2.42566032,-0.451953027,3.6145113,56,49.2509931,30.6052108,0.107023411,300,0.99439233,5,216.231464,1396.57106,541.501092,325.689457,1.66,2479.99307,5,-12.7264957,12.3094262,21.6774032,66.1922264,0.327491677,1.93919871,1.00419935
2007_v2_07211003_ECG,1845,2145,1001.67559,1005,997,2.39766286,-0.453112241,3.6698642,55.5,48.9659357,30.2865509,0.104026846,299,0.9940893,5,188.798408,1411.17878,532.275679,318.370815,1.67,2450.62368,5,-12.9827586,12.102459,21.4517456,65.8418433,0.325807185,1.91285881,1.00099536
2007_v2_07211003_ECG,1850,2150,1002.18395,1005,997,2.43068753,-0.45690327,3.6127581,56,49.3020033,30.3588162,0.104026846,299,0.9940893,5,173.804247,1431.97969,552.293022,321.799929,1.72,2479.87689,5,-12.9547414,11.7479508,21.5029914,66.3249305,0.324206769,1.90205233,0.992204409
2007_v2_07211003_ECG,1855,2155,1003.16054,1006,997,2.51538354,-0.433616481,3.51068606,57.75,50.1535995,30.6243751,0.110738255,299,0.9940893,5,161.822402,1491.07268,575.692255,327.771703,1.76,2556.35904,5,-12.526087,11.8353659,21.6908763,67.5297931,0.321204542,1.93287688,0.987689485
2007_v2_07211003_ECG,1860,2160,1003.85284,1007,997,2.5694078,-0.419160791,3.4710488,58.75,50.6893263,30.8877596,0.11409396,299,0.9940893,5,157.404325,1554.48563,569.827267,329.009822,1.73,2610.72705,5,-12.6652174,11.3414634,21.8776201,68.2655502,0.320478192,1.96054094,0.986010277
2007_v2_07211003_ECG,1865,2165,1003.46488,1007,997,2.55652477,-0.410354049,3.48364031,58.75,50.5620883,30.9133341,0.110738255,299,0.9940893,5,140.634673,1563.26996,560.073787,332.937432,1.68,2596.91585,5,-12.5833333,10.7762097,21.8957597,68.0707371,0.321661857,1.95728361,0.979879185
2007_v2_07211003_ECG,1870,2170,1004.08027,1007,997,2.60712105,-0.40502589,3.4148444,60.75,51.0599751,30.972601,0.110738255,299,0.9940893,5,144.356576,1576.61541,587.719491,335.976289,1.75,2644.66776,5,-12.210177,10.618,21.9372146,68.7968075,0.31886966,1.97554376,0.975620949
2007_v2_07211003_ECG,1875,2175,1004.19732,1007,997,2.60968912,-0.411854796,3.40979095,61.5,51.0851164,30.9903102,0.110738255,299,0.9940893,5,140.270793,1583.43918,594.415332,330.037808,1.8,2648.16312,5,-12.1204545,10.4121094,21.9502106,68.8299825,0.318904783,1.9721366,0.972803653
2007_v2_07211003_ECG,1880,2180,1004.29431,1008,997,2.61155738,-0.415483548,3.41080783,60.75,51.1033989,30.7544944,0.10738255,299,0.9940893,5,139.81118,1591.92155,593.936631,326.741538,1.82,2652.4109,5,-11.75,10.2148438,21.7832727,68.9101139,0.316111402,1.96157154,0.969387836
2007_v2_07211003_ECG,1885,2185,1004.63545,1009,997,2.64429954,-0.405544997,3.376179,60.75,51.4227532,31.1573728,0.110738255,299,0.9940893,5,147.389056,1601.73656,603.567592,325.415798,1.85,2678.10901,5,-11.8417431,9.90891473,22.0673429,69.2938054,0.318460543,2.01341834,0.973077513
2007_v2_07211003_ECG,1890,2190,1004.51171,1009,997,2.62492855,-0.406965049,3.41445796,59.75,51.2340566,30.9436596,0.10738255,299,0.9940893,5,144.454922,1597.00155,594.48721,328.268803,1.81,2664.21249,5,-11.9158879,9.86832061,21.916781,69.0616523,0.31735095,2.01158196,0.97521108
2007_v2_07211003_ECG,1895,2195,1004.00334,1008,997,2.59081543,-0.40744134,3.44719254,57.75,50.9000533,31.1765916,0.10738255,299,0.9940893,5,136.690087,1542.19009,597.753638,347.640754,1.72,2624.27457,5,-12.25,9.65384615,22.0821748,68.5128339,0.322307129,1.97634256,0.981968091
2007_v2_07211003_ECG,1900,2200,1003.2408,1007,997,2.49843846,-0.469309996,3.47955363,56,49.9843822,31.202521,0.110738255,299,0.9940893,5,131.060292,1475.51735,614.466084,322.963259,1.9,2544.00698,5,-11.6191589,9.87977099,22.1005405,67.1449405,0.329146773,2.00654165,1.0008486
2007_v2_07211003_ECG,1905,2205,1003.1806,1007,997,2.50757801,-0.451715542,3.47541684,56,50.0757228,31.3712881,0.11409396,299,0.9940893,5,154.857523,1424.13779,651.035044,322.526839,2.02,2552.5572,5,-11.7943925,9.75757576,22.2197795,67.2416346,0.330446748,2.03336333,1.0094796
2007_v2_07211003_ECG,1910,2210,1002.77926,1007,997,2.4643538,-0.481812211,3.49128779,56,49.6422582,31.2437376,0.11409396,299,0.9940893,5,179.679051,1386.33293,638.448876,312.032007,2.05,2516.49287,5,-11.6547619,9.75746269,22.1292475,66.6258508,0.332142063,2.02043908,1.0030194
2007_v2_07211003_ECG,1915,2215,1002.35667,1006,997,2.4163038,-0.498641396,3.54821707,56,49.1559132,31.1590482,0.110367893,300,0.9940893,5,197.939964,1340.2902,609.055648,327.265087,1.86,2474.5509,5,-11.4056604,10.0988806,22.069476,65.9207542,0.334787978,2.02861649,1.02431187
2007_v2_07211003_ECG,1920,2220,1002.15667,1006,997,2.38034661,-0.534549127,3.56793247,56,48.788796,31.0643953,0.110367893,300,0.9940893,5,243.649066,1273.87049,617.543175,311.169032,1.98,2446.23176,5,-11.5683962,9.73880597,22.0025829,65.3955623,0.336453762,2.02333735,1.0170889
2007_v2_07211003_ECG,1925,2225,1001.80268,1006,997,2.36991731,-0.523964266,3.59462606,56,48.6817965,30.9671291,0.110738255,299,0.9940893,5,286.976193,1187.95476,643.215074,324.400505,1.98,2442.54653,5,-11.3701923,9.71851852,21.9327859,65.2593864,0.336086303,2.02173122,1.02058481
2007_v2_07211003_ECG,1930,2230,1001.57525,1007,997,2.30370824,-0.616927705,3.55779808,56,47.9969608,30.495021,0.104026846,299,0.9940893,5,337.785619,1117.94358,639.739839,296.488014,2.16,2391.95705,5,-11.4579439,9.18181818,21.5994739,64.3496637,0.335657915,1.9872623,1.01811693
2007_v2_07211003_ECG,1935,2235,1001.9699,1007,997,2.33708298,-0.604602242,3.51516159,56,48.3433861,30.7960383,0.10738255,299,0.99434571,5,377.326172,1117.79411,635.13559,300.693477,2.11,2430.94935,5,-11.1391509,9.64285714,21.8126748,64.7948546,0.336642083,2.00073401,1.01536029
2007_v2_07211003_ECG,1940,2240,1003.74582,1009,997,2.3964184,-0.603838131,3.53260928,53,48.9532266,30.9713009,0.110738255,299,0.995627761,5,408.965423,1090.71175,683.261828,308.203183,2.22,2491.14218,5,-11.3425926,9.53053435,21.934938,65.6635004,0.334050695,1.99741175,1.00753896
2007_v2_07211003_ECG,1945,2245,1006.32886,1010,997,2.34303627,-0.594699567,3.67527985,52,48.4049199,31.0161248,0.111111111,298,0.995884171,5,409.052914,1019.18872,674.950547,317.953359,2.12,2421.14554,5,-11.3119266,9.59689922,21.964249,64.8355173,0.338768779,2.01479078,1.0208926
2007_v2_07211003_ECG,1950,2250,1009.09764,1012,997,2.30662895,-0.600391712,3.86147882,50,48.0273771,31.4183304,0.114864865,297,0.996140582,5,420.626736,986.688808,664.263717,308.129374,2.16,2379.70863,5,-11.25,9.91472868,22.2526243,64.1722573,0.346763933,2.02402991,1.02188535
2007_v2_07211003_ECG,1955,2255,1011.19529,1013,997,2.20090092,-0.574582828,3.94337343,51,46.9137605,31.6547038,0.111486486,297,0.996140582,5,410.360167,976.968391,557.775263,303.432106,1.84,2248.53593,5,-11.2316514,9.81054688,22.4202603,62.4430443,0.359051365,2.03394734,1.03848414
2007_v2_07211003_ECG,1960,2260,1011.58249,1014,997,2.18768321,-0.586735755,3.98982748,52,46.7726758,31.2769343,0.108108108,297,0.996140582,5,416.301966,974.659544,556.8525,293.625078,1.9,2241.43909,5,-10.8194444,9.8120155,22.1534914,62.3264729,0.355442725,1.99249802,1.03889004
2007_v2_07211003_ECG,1965,2265,1013.51689,1014,997,2.46559971,-0.178607263,4.97135603,54,49.6548055,33.0747997,0.115254237,296,0.996140582,5,512.337687,977.515242,681.325387,321.160784,2.12,2492.3391,5,-10.6415094,9.70384615,23.4246397,66.200345,0.353844676,1.99108893,1.01487874
2007_v2_07211003_ECG,1970,2270,1014.40878,1015,997,2.48942894,-0.193504702,4.93466346,54.5,49.8941774,33.237818,0.118644068,296,0.996140582,5,524.182655,1003.28441,677.255773,317.706878,2.13,2522.42972,5,-10.5841121,9.56007752,23.5426211,66.5176884,0.353930236,1.97295158,1.00790026
2007_v2_07211003_ECG,1975,2275,1014.88514,1015.5,997,2.51077998,-0.209229474,4.86993105,55.5,50.1076839,33.4266716,0.122033898,296,0.996140582,5,539.457979,1001.7396,676.702524,328.821473,2.06,2546.72157,5,-10.614486,9.42635659,23.6758594,66.7908201,0.354477746,1.89258739,0.985155738
2007_v2_07211003_ECG,1980,2280,1014.83446,1015,997,2.50905386,-0.205574537,4.87500125,55,50.0904568,33.5511752,0.125423729,296,0.996140582,5,511.610172,1022.75717,678.340144,328.311021,2.07,2541.01851,5,-10.7172897,9.32751938,23.7645592,66.7334507,0.356111649,1.88576142,0.98257822
2007_v2_07211003_ECG,1985,2285,1016.91525,1017,997,2.70686694,-0.061128055,4.91333949,56.5,52.0275595,35.4448887,0.132653061,295,0.99824223,5,580.162426,960.563654,832.405029,355.720509,2.34,2728.85162,5,-10.8785714,9.20769231,25.1057178,69.1623945,0.362996654,1.87210637,0.96729349
2007_v2_07211003_ECG,1990,2290,1017.60678,1017,997,2.70072921,-0.0757333495,4.92843658,56.75,51.9685405,35.3086006,0.12585034,295,0.998881119,5,548.539198,903.92049,891.485273,371.635359,2.4,2715.58032,5,-10.9504717,8.95736434,25.0085167,69.1088453,0.36187143,1.85367666,0.976737946
2007_v2_07211003_ECG,1995,2295,1021.33673,1019,997,2.45646984,0.102907277,5.01754015,55,49.5627869,35.5922586,0.126279863,294,0.998881119,5,515.534157,772.080016,775.040918,371.279399,2.09,2433.93449,5,-11.2211538,9.87307692,25.2097084,65.4019135,0.385458269,1.86062195,0.994261632
2007_v2_07211003_ECG,2000,2300,1022.82253,1019,997,2.52611223,0.0922307344,4.88904819,59.25,50.260444,36.4156466,0.133561644,293,0.998881119,5,537.639228,788.072783,779.23189,395.033421,1.97,2499.97732,5,-12.2379808,9.67829457,25.7939424,66.2336545,0.389438611,1.87483483,0.979427748
2007_v2_07211003_ECG,2005,2305,1023.21502,1019,997,2.51214881,0.076597048,4.93442324,58.25,50.1213409,36.4562508,0.133561644,293,0.998881119,5,496.170362,811.586281,777.535216,397.216357,1.96,2482.50822,5,-11.9879808,9.62209302,25.8226978,66.0112559,0.391186282,1.91816695,0.995648519
2007_v2_07211003_ECG,2010,2310,1023.41638,1019,997,2.51974384,0.0664462521,4.90523932,59.25,50.1970501,36.4807136,0.133561644,293,0.998881119,5,524.71516,790.213137,782.348173,397.820964,1.97,2495.09743,5,-12.2403846,9.64728682,25.8399553,66.1194706,0.390807051,1.93195759,1.00251681
2007_v2_07211003_ECG,2015,2315,1024.37201,1021,997,2.54459743,0.0269754424,4.8243017,62,50.4440029,36.8232543,0.136986301,293,0.998881119,5,536.823951,784.617276,797.049399,403.028104,1.98,2521.51873,5,-12.0309524,10.5273437,26.0825428,66.3995168,0.392812238,1.9774297,0.989163045
2007_v2_07211003_ECG,2020,2320,1025.0274,1022,997,2.56912639,0.00256104599,4.75984549,62.5,50.6865504,36.6436354,0.137457045,292,0.998881119,5,565.205939,790.726611,799.603031,394.926391,2.02,2550.46197,5,-12.4859813,10.606,25.9555617,66.817375,0.388455274,1.96413566,0.978331834
2007_v2_07211003_ECG,2025,2325,1025.7363,1024,997,2.58919139,-0.0280326686,4.69570942,63,50.8840976,36.434897,0.130584192,292,0.998881119,5,594.706281,797.847675,789.570985,393.730549,2.01,2575.85549,5,-12.6603774,11.3988095,25.8076191,67.1740246,0.384190455,1.96413566,0.991455191
2007_v2_07211003_ECG,2030,2330,1025.60068,1025,997,2.59969959,-0.0279847759,4.6533322,63.25,50.9872493,36.3525357,0.130136986,293,0.997825563,5,577.196122,810.415512,805.456772,392.348686,2.05,2585.41709,5,-13.2873832,11.6230159,25.7485935,67.3528701,0.382293931,1.93522047,0.988116093
2007_v2_07211003_ECG,2035,2335,1023.02381,1022,997,2.9155182,-0.267168696,4.85173746,64,53.9955387,36.5447503,0.136518771,294,0.996319153,5,517.663417,1003.46709,938.467722,464.768568,2.02,2924.3668,5,-13.1875,11.725,25.8801293,71.8418772,0.360237375,1.76672781,1.02267543
2007_v2_07211003_ECG,2040,2340,1020.23129,1020.5,997,3.38305895,-0.529687266,5.01079463,65,58.1640692,36.6050781,0.136518771,294,0.996319153,5,473.955163,1479.20573,1132.42935,379.13878,2.99,3464.72903,5,-13.0673077,11.1961538,25.9272247,78.063416,0.332130286,1.75326192,0.989922817
2007_v2_07211003_ECG,2045,2345,1020.12925,1020.5,997,3.39474092,-0.526149817,4.975194,66,58.2644052,36.9775783,0.14334471,294,0.996319153,5,485.87686,1475.7673,1134.7327,379.876941,2.99,3476.2538,5,-13.1383495,11.2671756,26.1917233,78.124743,0.335255161,1.72720181,0.966188997
2007_v2_07211003_ECG,2050,2350,1020.34014,1022,997,3.39830712,-0.53624243,4.9716816,66,58.2950008,36.801469,0.139931741,294,0.996319153,5,517.948558,1441.63223,1142.49681,382.150809,2.99,3484.22841,5,-13.2932692,11.2596154,26.0667625,78.2121355,0.333282839,1.7283065,0.969257124
2007_v2_07211003_ECG,2055,2355,1021.34014,1025.5,997,3.42679859,-0.565655705,4.94213521,64,58.5388639,37.0622113,0.14334471,294,0.996319153,5,505.822275,1508.28301,1117.34825,385.76054,2.9,3517.21407,5,-13.3461538,11.2653846,26.2517525,78.5139648,0.334357748,1.74361607,0.974110187
2007_v2_07211003_ECG,2060,2360,1022.33106,1026,997,3.52282496,-0.550258801,4.80907172,65.25,59.3533904,36.9312579,0.140410959,293,0.996319153,5,522.596993,1589.67612,1100.91141,399.801464,2.75,3612.98599,5,-13.6721698,11.4153543,26.1566437,79.7588861,0.327946452,1.72142624,0.954249323
2007_v2_07211003_ECG,2065,2365,1025.4589,1027.5,997,3.58072339,-0.503237074,4.85471796,66,59.839146,36.8165322,0.137457045,292,0.996319153,5,444.936982,1584.94779,1177.9874,436.401831,2.7,3644.274,5,-14.1542056,11.372,26.0695359,80.5097887,0.323805792,1.72140254,0.957523788
2007_v2_07211003_ECG,2070,2370,1029.91753,1031,997,3.39375869,-0.382793563,4.92974989,68.75,58.2559756,36.6852879,0.134482759,291,0.996319153,5,317.738084,1585.23892,1120.57049,387.170809,2.89,3410.71831,5,-14.6285047,11.5383065,25.9826391,78.1819663,0.332335452,1.69954145,0.957908222
2007_v2_07211003_ECG,2075,2375,1032.0756,1033,997,3.3353184,-0.439670211,5.11461126,68.5,57.7522156,36.8030171,0.137931034,291,0.996319153,5,267.002276,1601.99916,1090.03061,396.266625,2.75,3355.29868,5,-14.5490654,12.6028226,26.0675488,77.4023237,0.336779925,1.71924174,0.96710753
2007_v2_07211003_ECG,2080,2380,1033.64138,1033.5,997,3.294736,-0.472232524,5.28212139,66,57.3997909,38.3185067,0.148788927,290,0.996319153,5,216.739164,1605.18797,1066.07031,411.004492,2.59,3299.00193,5,-14.6378505,12.8780488,27.1416531,76.5036121,0.3547761,1.71143245,0.963051979
2007_v2_07211003_ECG,2085,2385,1034.82069,1035,997,3.27095044,-0.511577239,5.39515507,65,57.1922236,39.2894502,0.15916955,290,0.996319153,5,181.215409,1601.72092,1056.75551,443.419803,2.38,3283.11164,5,-14.4292453,13.0766129,27.8297574,75.943436,0.366453757,1.73164633,0.96096914
2007_v2_07211003_ECG,2090,2390,1036.86897,1038,997,3.38478554,-0.475539416,5.38862462,67,58.1789097,40.719226,0.166089965,290,0.996319153,5,174.504216,1603.11685,1153.46121,455.399662,2.53,3386.48194,5,-14.6698113,13.6895161,28.8425834,77.05632,0.374305228,1.75750955,0.962259122
2007_v2_07211003_ECG,2095,2395,1037.9654,1039,997,3.37815158,-0.515932626,5.45447228,67.5,58.1218683,40.7343613,0.163194444,289,0.996319153,5,163.023333,1616.34184,1142.72157,460.820643,2.48,3382.90739,5,-14.8904762,13.828629,28.8526525,76.9664056,0.374873326,1.81480188,0.983908604
2007_v2_07211003_ECG,2100,2400,1040.39236,1040.5,997,3.50238559,-0.506820464,5.32462951,69,59.1809563,40.7765646,0.167247387,288,0.996319153,5,163.444304,1723.12881,1149.30032,465.085776,2.47,3500.95922,5,-14.629717,14.0471311,28.8811501,78.5534871,0.367662228,1.80779668,0.977979351
2007_v2_07211003_ECG,2105,2405,1042.45139,1043.5,1000,3.66732864,-0.476976578,5.11497151,70.5,60.5584729,40.7859202,0.167247387,288,0.996319153,5,194.019529,1878.06433,1135.85358,456.243864,2.49,3664.18131,5,-14.8784404,14.1638655,28.8899445,80.6227535,0.358334878,1.8581939,1.05143511
2007_v2_07211003_ECG,2110,2410,1044.21951,1045,1000,3.86688521,-0.429825852,4.85410645,74.75,62.1842843,40.8929611,0.167832168,287,0.996319153,5,242.317119,1991.6146,1152.60458,468.719914,2.46,3855.25621,5,-15.1018519,14.3739496,28.9638962,83.0353126,0.3488142,1.86866208,1.04646786
2007_v2_07211003_ECG,2115,2415,1046.10801,1046,1000,3.90850228,-0.464651477,4.82368734,73,62.5180156,40.8423115,0.171328671,287,0.996319153,5,261.405238,2005.44515,1170.09785,468.727563,2.5,3905.6758,5,-15.6490826,14.5508475,28.9288409,83.5471527,0.346257652,1.88323679,1.04269662
2007_v2_07211003_ECG,2120,2420,1048.24126,1047,996,3.7051872,-0.480028213,5.18672444,72,60.8702489,41.5900629,0.178947368,286,0.996319153,5,207.538612,1898.84365,1080.9861,499.898051,2.16,3687.26642,5,-15.6376147,14.8376068,29.4595703,80.8857721,0.364212019,1.89427939,1.07007533
2007_v2_07211003_ECG,2125,2425,1050.76224,1050,996,3.76559941,-0.496186218,5.18835203,73,61.36448,42.3284567,0.189473684,286,0.996575563,5,236.983476,1852.85838,1135.60785,522.839197,2.17,3748.2889,5,-15.7635135,15.15,29.9801233,81.439493,0.368127578,1.86475989,1.04030343
2007_v2_07211003_ECG,2130,2430,1053.69014,1052,1013,3.8127305,-0.502753962,5.31505374,74.5,61.7473117,43.1825364,0.204946996,284,0.996831974,5,266.383172,1824.40642,1166.77425,531.794116,2.19,3789.35796,5,-15.3922018,15.4913043,30.5866616,81.7919136,0.373957036,1.87634765,1.03501809
2007_v2_07211003_ECG,2135,2435,1055.91549,1056,1013,3.84934972,-0.545821081,5.33397545,76,62.0431279,43.4598226,0.208480565,284,0.996831974,5,306.994936,1840.28829,1149.97313,531.725706,2.16,3828.98206,5,-14.8954545,15.3157895,30.7841566,82.1646831,0.374664095,1.91416589,1.04232917
2007_v2_07211003_ECG,2140,2440,1057.49823,1058,1038,3.84298138,-0.603792993,5.42563965,75.75,61.9917848,43.7578362,0.216312057,283,0.997135004,5,325.041978,1831.96633,1131.65096,536.354608,2.11,3825.01388,5,-15.1681818,15.5619469,30.9955121,82.0075667,0.377959173,1.91817339,1.023223
2007_v2_07211003_ECG,2145,2445,1059.84507,1059.5,1038,4.00779217,-0.565751046,5.27686364,73.5,63.3071257,43.9715215,0.219081272,284,0.997438034,5,413.33658,1825.74085,1183.07067,563.477357,2.1,3985.62545,5,-15.5568182,15.5767544,31.1441238,83.9382385,0.371036184,1.97933912,1.01917454
2007_v2_07211003_ECG,2150,2450,1060.81272,1061,1038,4.0474648,-0.592520103,5.23576641,73.5,63.6196888,44.3090372,0.219858156,283,0.997438034,5,450.457956,1847.87977,1174.40105,559.57709,2.1,4032.31587,5,-16.1273148,15.4978261,31.3869143,84.3195779,0.372237564,2.05377067,1.02605089
2007_v2_07211003_ECG,2155,2455,1060.52297,1061,1038,4.0465766,-0.581672592,5.22707481,74.5,63.6127078,44.2899057,0.216312057,283,0.996882479,5,445.050495,1854.11004,1175.02868,558.742958,2.1,4032.93217,5,-16.2920561,15.7047414,31.3733199,84.3141032,0.3721005,2.06662605,1.02556847
2007_v2_07211003_ECG,2160,2460,1060.91489,1061,1038,4.05809949,-0.598943526,5.22986822,75,63.7032141,44.3471825,0.213523132,282,0.993681875,5,463.867992,1851.80558,1174.96923,557.362925,2.11,4048.00572,5,-16.3396226,16.0668103,31.4136588,84.4356621,0.372042547,2.04391453,1.01748258
2007_v2_07211003_ECG,2165,2465,1059.15901,1061,1038,4.58142498,-0.769176498,5.18014955,78.5,67.6862245,45.6058118,0.223404255,283,0.988283077,5,299.848387,2145.82,1500.2489,668.460098,2.24,4614.37738,5,-16.8419811,15.9252137,32.3004763,90.1084302,0.358462313,1.89689361,1.03724232
2007_v2_07211003_ECG,2170,2470,1054.30526,1061,1038,5.6141424,-0.966346001,4.99323813,80.25,74.927581,45.3197948,0.218309859,285,0.980768875,5,146.407111,3227.02198,1740.80755,683.242785,2.55,5797.47943,5,-16.6721698,15.6386555,32.0979396,100.985182,0.317848013,1.8102256,1.05673672
2007_v2_07211003_ECG,2175,2475,1051.82332,1061,1038,6.37935165,-1.09429709,5.03258898,81.5,79.8708436,45.4557302,0.219858156,283,0.974642613,5,108.048561,3993.18286,1529.21512,932.737897,1.64,6563.18444,5,-16.8928571,15.6673729,32.1922108,108.269871,0.29733305,1.81952044,1.03641003
2007_v2_07211003_ECG,2180,2480,1045.7614,1060,1038,8.01224569,-1.21519124,4.76630073,83.5,89.5111484,45.6259671,0.221830986,285,0.972698168,5,181.426576,5609.66301,1817.88243,1051.06266,1.73,8660.03467,5,-17.3380952,15.7958333,32.3159431,122.39351,0.264033144,1.57274708,1.05088893
2007_v2_07211003_ECG,2185,2485,1041.38811,1059.5,1038,8.9343506,-1.15658362,4.25034965,87,94.5216938,45.1524513,0.214035088,286,0.970387711,5,360.110792,6659.36709,1708.63222,1001.47584,1.71,9729.58593,5,-17.7904762,15.7396694,31.9807742,129.791877,0.246400429,1.4995233,1.03694195
2007_v2_07211003_ECG,2190,2490,1039.93706,1059.5,1038,9.10948374,-1.1014223,4.04873819,91,95.4436155,45.2454902,0.21754386,286,0.963608262,5,455.659081,6903.07224,1534.76372,997.978719,1.54,9891.47376,5,-18.8691589,15.9579832,32.0492372,131.117557,0.244431317,1.51263605,1.02189114
2007_v2_07211003_ECG,2195,2495,1037.17073,1059,1038,9.51117005,-1.02798957,3.72936309,93.5,97.5252278,44.8806109,0.216783217,287,0.961830484,5,654.97252,7008.40696,1606.88522,1049.87802,1.53,10320.1427,5,-19.2939815,15.9096639,31.7862992,134.208686,0.236842341,1.49546365,0.996505948
2007_v2_07211003_ECG,2200,2500,1034.55903,1059,1038,9.94310452,-0.970542634,3.4720607,96.5,99.7151168,44.9581687,0.216027875,288,0.961830484,5,870.517574,7161.4849,1807.54516,955.377592,1.89,10794.9252,5,-19.4022727,15.7309322,31.845506,137.375663,0.231813302,1.49762622,0.995912359
2007_v2_07211003_ECG,2205,2505,1033.39583,1058,1038,9.94397517,-0.938554313,3.42655316,98.5,99.7194824,44.7090868,0.212543554,288,0.961830484,5,937.840538,7174.32354,1712.22728,952.925501,1.8,10777.3169,5,-19.2866972,15.4957983,31.6686571,137.422875,0.230446766,1.48815573,0.997835231
2007_v2_07211003_ECG,2210,2510,1032.24306,1056.5,1077,9.99662364,-0.902538188,3.35279713,100,99.9831168,44.9146694,0.216027875,288,0.961830484,5,1025.88596,7154.18818,1682.4222,949.495594,1.77,10811.9919,5,-19.0727273,15.2838983,31.8147485,137.771801,0.230923515,1.4982411,0.999619438
2007_v2_07211003_ECG,2215,2515,1031.51389,1054.5,1077,10.0388918,-0.878229281,3.30097167,104.5,100.19427,44.9416191,0.216027875,288,0.961830484,5,1102.63429,7107.68073,1682.4811,957.638882,1.76,10850.435,5,-19.2406542,15.7727273,31.8333569,138.073969,0.230552921,1.49551819,1.03079788
2007_v2_07211003_ECG,2220,2520,1030.88194,1050,1077,10.0402857,-0.859900646,3.27806721,105,100.201226,44.9698699,0.216027875,288,0.961830484,5,1123.34173,7085.3796,1676.94923,956.636743,1.75,10842.3073,5,-19.2731481,16.0666667,31.8535612,138.079405,0.230690169,1.5154335,1.04031043
2007_v2_07211003_ECG,2225,2525,1030.0173,1049,1077,10.0301351,-0.834716759,3.24493111,106.5,100.150562,44.8295383,0.211805556,289,0.961830484,5,1177.14372,7020.38108,1674.72674,945.748317,1.77,10817.9999,5,-19.4197248,16.225,31.7544168,138.028719,0.230056593,1.50293965,1.03386406
2007_v2_07211003_ECG,2230,2530,1029.56747,1049,1077,10.040913,-0.820581812,3.22333452,107.5,100.204356,44.8833364,0.211805556,289,0.959981745,5,1194.09934,7011.5119,1667.59893,948.687434,1.76,10821.8976,5,-19.2431818,16.3739496,31.7918513,138.098168,0.230211969,1.53739725,1.04686661
2007_v2_07211003_ECG,2235,2535,1028.91003,1047,1077,10.042971,-0.802165367,3.20065562,108.25,100.214625,44.7875773,0.208333333,289,0.952255413,5,1222.26615,6990.67543,1667.68588,937.865384,1.78,10818.4928,5,-18.2681818,16.1617647,31.724645,138.128523,0.229674829,1.50399617,1.04869214
2007_v2_07211003_ECG,2240,2540,1025.98276,1045.5,1077,10.2252004,-0.729220224,3.03425648,110,101.119733,44.8162338,0.207612457,290,0.946584545,5,1407.38063,6827.84749,1813.54031,942.330355,1.92,10991.0988,5,-18.2201835,16.1756198,31.7414522,139.437732,0.227638903,1.50658006,1.03626329
2007_v2_07211003_ECG,2245,2545,1023.37457,1043,1077,10.3284006,-0.661634116,2.91075959,118,101.628739,44.6750721,0.206896552,291,0.935547734,5,1562.56022,6789.22851,1781.40628,938.632586,1.9,11071.8276,5,-18.0963303,16.0307377,31.6408825,140.19863,0.225686104,1.48409971,1.02986561
2007_v2_07211003_ECG,2250,2550,1019.41096,1039,1077,10.6815762,-0.58200033,2.71384493,125.5,103.351711,44.2966802,0.202749141,292,0.926315614,5,1862.1058,6881.27027,1750.00416,950.036377,1.84,11443.4166,5,-18.1727273,15.2458678,31.3707729,142.75513,0.219752334,1.47799976,1.02414516
2007_v2_07211003_ECG,2255,2555,1016.35395,1038,987,11.156257,-0.540351538,2.56861019,133.5,105.623184,43.9553457,0.2,291,0.922516673,5,2164.01825,7105.65623,1827.47455,898.098189,2.03,11995.2472,5,-17.8878505,15.2398374,31.1317802,146.093553,0.213094825,1.42651255,1.01112627
2007_v2_07211003_ECG,2260,2560,1012.31164,1034.5,817,11.834284,-0.49223688,2.39026759,143.5,108.785495,43.8328597,0.199312715,292,0.914968363,5,2649.23033,7271.10045,1867.86389,1003.48996,1.86,12791.6846,5,-17.546729,14.3870968,31.0419411,150.681671,0.206010067,1.29060926,0.993393591
2007_v2_07211003_ECG,2265,2565,1006.63946,1026,813,12.1934259,-0.460454335,2.24480406,162,110.423847,42.3607133,0.19112628,294,0.912926424,5,3087.7562,7379.83038,1754.11474,1028.48543,1.71,13250.1867,5,-18.0412844,14.4193548,29.9954338,153.2551,0.195722255,1.24642553,0.995644879
2007_v2_07211003_ECG,2270,2570,1001.77288,1020,813,12.9766591,-0.420389638,2.12588717,176.25,113.91514,42.0986855,0.18707483,295,0.912926424,5,3692.07257,7728.85995,1822.05277,958.75465,1.9,14201.7399,5,-17.0848624,14.402,29.8142248,158.317498,0.188319201,1.15325819,0.980799834
2007_v2_07211003_ECG,2275,2575,998.121622,1013,813,13.3530631,-0.355162661,2.01306064,191,115.555455,41.6859933,0.179661017,296,0.911112699,5,4118.13242,7961.90573,1654.90941,878.435071,1.88,14613.3826,5,-16.8348214,14.0487805,29.5253547,160.730768,0.183694479,1.10878181,0.964130834
2007_v2_07211003_ECG,2280,2580,996.771044,1010,813,13.3987447,-0.321339679,1.97943828,188.5,115.752947,40.2308793,0.175675676,297,0.906804001,5,4288.4312,7944.62285,1550.28207,864.426324,1.79,14647.7624,5,-16.8289474,13.9692623,28.4889623,161.201329,0.176729079,1.10849965,0.956500758
2007_v2_07211003_ECG,2285,2585,993.379195,1008,813,13.2314416,-0.279885643,1.95046498,196,115.028003,40.1797309,0.175084175,298,0.904637334,5,4363.81313,7757.86173,1475.73978,848.912043,1.74,14446.3267,5,-16.6804348,13.7438525,28.4574636,160.165714,0.177675127,1.10861568,0.963519578
2007_v2_07211003_ECG,2290,2590,,,,,,,,,,,,,2,,,,,,,2,,,,,,,
